time,amplitude
0,-0.060
1,-0.040
2,-0.025
3,-0.015
4,-0.010
5,-0.015
6,-0.020
7,-0.030
8,-0.040
9,-0.045
10,-0.050
11,-0.045
12,-0.040
13,-0.035
14,-0.025
15,-0.015
16,-0.010
17,-0.005
18,-0.005
19,-0.010
20,-0.015
21,-0.025
22,-0.030
23,-0.040
24,-0.045
25,-0.045
26,-0.045
27,-0.040
28,-0.035
29,-0.030
30,-0.020
31,-0.015
32,-0.015
33,-0.015
34,-0.015
35,-0.020
36,-0.030
37,-0.035
38,-0.040
39,-0.040
40,-0.040
41,-0.035
42,-0.035
43,-0.030
44,-0.030
45,-0.030
46,-0.030
47,-0.035
48,-0.040
49,-0.045
50,-0.045
51,-0.045
52,-0.045
53,-0.040
54,-0.030
55,-0.025
56,-0.020
57,-0.020
58,-0.020
59,-0.025
60,-0.030
61,-0.040
62,-0.050
63,-0.055
64,-0.060
65,-0.060
66,-0.060
67,-0.055
68,-0.045
69,-0.040
70,-0.035
71,-0.030
72,-0.025
73,-0.025
74,-0.025
75,-0.025
76,-0.025
77,-0.025
78,-0.025
79,-0.020
80,-0.020
81,-0.015
82,-0.015
83,-0.015
84,-0.015
85,-0.015
86,-0.015
87,-0.010
88,-0.010
89,-0.005
90,0.000
91,0.005
92,0.005
93,0.005
94,0.010
95,0.010
96,0.010
97,0.010
98,0.015
99,0.020
100,0.030
101,0.035
102,0.035
103,0.040
104,0.035
105,0.025
106,0.015
107,0.000
108,-0.010
109,-0.020
110,-0.030
111,-0.030
112,-0.030
113,-0.030
114,-0.025
115,-0.025
116,-0.025
117,-0.030
118,-0.035
119,-0.040
120,-0.045
121,-0.050
122,-0.055
123,-0.060
124,-0.060
125,-0.060
126,-0.060
127,-0.065
128,-0.065
129,-0.065
130,-0.070
131,-0.075
132,-0.075
133,-0.075
134,-0.075
135,-0.070
136,-0.065
137,-0.055
138,-0.050
139,-0.045
140,-0.045
141,-0.045
142,-0.050
143,-0.055
144,-0.065
145,-0.070
146,-0.080
147,-0.080
148,-0.085
149,-0.085
150,-0.080
151,-0.075
152,-0.070
153,-0.065
154,-0.065
155,-0.070
156,-0.075
157,-0.085
158,-0.095
159,-0.105
160,-0.115
161,-0.115
162,-0.110
163,-0.095
164,-0.070
165,-0.030
166,0.020
167,0.085
168,0.160
169,0.245
170,0.335
171,0.425
172,0.515
173,0.590
174,0.655
175,0.690
176,0.695
177,0.670
178,0.610
179,0.520
180,0.405
181,0.280
182,0.150
183,0.030
184,-0.070
185,-0.145
186,-0.185
187,-0.200
188,-0.190
189,-0.165
190,-0.130
191,-0.095
192,-0.065
193,-0.045
194,-0.035
195,-0.030
196,-0.030
197,-0.035
198,-0.040
199,-0.040
200,-0.040
201,-0.040
202,-0.035
203,-0.035
204,-0.030
205,-0.025
206,-0.025
207,-0.025
208,-0.025
209,-0.025
210,-0.030
211,-0.035
212,-0.040
213,-0.045
214,-0.050
215,-0.055
216,-0.055
217,-0.050
218,-0.050
219,-0.040
220,-0.035
221,-0.030
222,-0.025
223,-0.020
224,-0.015
225,-0.010
226,-0.010
227,-0.005
228,0.000
229,0.005
230,0.010
231,0.010
232,0.010
233,0.010
234,0.005
235,0.000
236,0.000
237,0.000
238,0.000
239,0.000
240,0.005
241,0.010
242,0.015
243,0.015
244,0.020
245,0.020
246,0.020
247,0.020
248,0.020
249,0.025
250,0.030
251,0.040
252,0.045
253,0.050
254,0.055
255,0.055
256,0.055
257,0.055
258,0.055
259,0.060
260,0.065
261,0.075
262,0.085
263,0.100
264,0.110
265,0.120
266,0.130
267,0.140
268,0.145
269,0.150
270,0.155
271,0.160
272,0.165
273,0.175
274,0.180
275,0.190
276,0.195
277,0.200
278,0.205
279,0.210
280,0.215
281,0.215
282,0.215
283,0.220
284,0.220
285,0.220
286,0.220
287,0.225
288,0.225
289,0.230
290,0.235
291,0.240
292,0.245
293,0.245
294,0.240
295,0.235
296,0.225
297,0.215
298,0.205
299,0.190
300,0.180
301,0.165
302,0.155
303,0.145
304,0.135
305,0.130
306,0.120
307,0.115
308,0.105
309,0.100
310,0.090
311,0.085
312,0.075
313,0.070
314,0.060
315,0.050
316,0.045
317,0.035
318,0.030
319,0.020
320,0.015
321,0.010
322,0.005
323,-0.005
324,-0.015
325,-0.025
326,-0.035
327,-0.045
328,-0.050
329,-0.055
330,-0.055
331,-0.050
332,-0.050
333,-0.040
334,-0.035
335,-0.030
336,-0.030
337,-0.030
338,-0.035
339,-0.035
340,-0.040
341,-0.045
342,-0.050
343,-0.050
344,-0.055
345,-0.055
346,-0.050
347,-0.050
348,-0.050
349,-0.045
350,-0.045
351,-0.045
352,-0.045
353,-0.045
354,-0.045
355,-0.045
356,-0.045
357,-0.045
358,-0.040
359,-0.040
360,-0.040
361,-0.035
362,-0.035
363,-0.035
364,-0.035
365,-0.035
366,-0.035
367,-0.035
368,-0.035
369,-0.030
370,-0.030
371,-0.025
372,-0.025
373,-0.020
374,-0.025
375,-0.025
376,-0.025
377,-0.030
378,-0.030
379,-0.030
380,-0.030
381,-0.030
382,-0.030
383,-0.030
384,-0.030
385,-0.030
386,-0.035
387,-0.040
388,-0.040
389,-0.045
390,-0.040
391,-0.040
392,-0.030
393,-0.025
394,-0.020
395,-0.015
396,-0.015
397,-0.020
398,-0.030
399,-0.040
400,-0.050
401,-0.055
402,-0.060
403,-0.060
404,-0.060
405,-0.050
406,-0.045
407,-0.035
408,-0.030
409,-0.030
410,-0.030
411,-0.035
412,-0.040
413,-0.045
414,-0.045
415,-0.045
416,-0.045
417,-0.045
418,-0.045
419,-0.045
420,-0.045
421,-0.045
422,-0.045
423,-0.050
424,-0.050
425,-0.050
426,-0.055
427,-0.055
428,-0.055
429,-0.055
430,-0.055
431,-0.055
432,-0.050
433,-0.050
434,-0.045
435,-0.040
436,-0.035
437,-0.030
438,-0.030
439,-0.030
440,-0.035
441,-0.045
442,-0.050
443,-0.060
444,-0.065
445,-0.070
446,-0.070
447,-0.065
448,-0.060
449,-0.055
450,-0.050
451,-0.045
452,-0.050
453,-0.055
454,-0.060
455,-0.065
456,-0.070
457,-0.075
458,-0.075
459,-0.070
460,-0.065
461,-0.060
462,-0.060
463,-0.060
464,-0.060
465,-0.060
466,-0.065
467,-0.065
468,-0.070
469,-0.070
470,-0.070
471,-0.070
472,-0.065
473,-0.065
474,-0.065
475,-0.070
476,-0.070
477,-0.070
478,-0.070
479,-0.070
480,-0.070
481,-0.070
482,-0.070
483,-0.070
484,-0.070
485,-0.070
486,-0.070
487,-0.070
488,-0.070
489,-0.070
490,-0.070
491,-0.070
492,-0.070
493,-0.070
494,-0.070
495,-0.065
496,-0.065
497,-0.060
498,-0.050
499,-0.045
500,-0.035
501,-0.030
502,-0.025
503,-0.025
504,-0.025
505,-0.025
506,-0.025
507,-0.025
508,-0.025
509,-0.025
510,-0.020
511,-0.020
512,-0.015
513,-0.015
514,-0.020
515,-0.020
516,-0.025
517,-0.025
518,-0.025
519,-0.020
520,-0.015
521,-0.005
522,0.005
523,0.015
524,0.020
525,0.020
526,0.015
527,0.010
528,0.000
529,-0.015
530,-0.025
531,-0.035
532,-0.040
533,-0.050
534,-0.055
535,-0.055
536,-0.060
537,-0.060
538,-0.065
539,-0.065
540,-0.070
541,-0.070
542,-0.070
543,-0.070
544,-0.070
545,-0.070
546,-0.070
547,-0.075
548,-0.075
549,-0.075
550,-0.080
551,-0.080
552,-0.075
553,-0.075
554,-0.075
555,-0.070
556,-0.070
557,-0.070
558,-0.070
559,-0.070
560,-0.075
561,-0.075
562,-0.080
563,-0.085
564,-0.085
565,-0.090
566,-0.090
567,-0.095
568,-0.095
569,-0.095
570,-0.095
571,-0.095
572,-0.100
573,-0.100
574,-0.100
575,-0.100
576,-0.105
577,-0.105
578,-0.110
579,-0.110
580,-0.110
581,-0.110
582,-0.105
583,-0.090
584,-0.070
585,-0.035
586,0.015
587,0.075
588,0.155
589,0.240
590,0.340
591,0.440
592,0.535
593,0.615
594,0.675
595,0.705
596,0.700
597,0.665
598,0.595
599,0.500
600,0.385
601,0.260
602,0.140
603,0.035
604,-0.050
605,-0.115
606,-0.150
607,-0.170
608,-0.165
609,-0.150
610,-0.130
611,-0.105
612,-0.085
613,-0.070
614,-0.055
615,-0.050
616,-0.045
617,-0.050
618,-0.050
619,-0.055
620,-0.060
621,-0.065
622,-0.065
623,-0.065
624,-0.060
625,-0.055
626,-0.050
627,-0.045
628,-0.040
629,-0.035
630,-0.035
631,-0.035
632,-0.035
633,-0.040
634,-0.040
635,-0.040
636,-0.035
637,-0.030
638,-0.025
639,-0.020
640,-0.015
641,-0.010
642,-0.015
643,-0.015
644,-0.020
645,-0.025
646,-0.030
647,-0.035
648,-0.035
649,-0.035
650,-0.035
651,-0.030
652,-0.025
653,-0.025
654,-0.020
655,-0.020
656,-0.015
657,-0.015
658,-0.010
659,-0.005
660,0.005
661,0.010
662,0.015
663,0.020
664,0.025
665,0.030
666,0.030
667,0.030
668,0.035
669,0.035
670,0.040
671,0.045
672,0.045
673,0.045
674,0.045
675,0.045
676,0.045
677,0.045
678,0.045
679,0.050
680,0.055
681,0.065
682,0.075
683,0.085
684,0.090
685,0.100
686,0.105
687,0.110
688,0.115
689,0.120
690,0.125
691,0.135
692,0.145
693,0.150
694,0.160
695,0.170
696,0.175
697,0.180
698,0.185
699,0.190
700,0.195
701,0.200
702,0.205
703,0.215
704,0.220
705,0.230
706,0.235
707,0.240
708,0.240
709,0.245
710,0.245
711,0.245
712,0.240
713,0.240
714,0.240
715,0.240
716,0.235
717,0.230
718,0.220
719,0.210
720,0.200
721,0.185
722,0.170
723,0.155
724,0.140
725,0.130
726,0.115
727,0.105
728,0.095
729,0.080
730,0.070
731,0.055
732,0.045
733,0.035
734,0.030
735,0.025
736,0.020
737,0.015
738,0.010
739,0.010
740,0.005
741,0.000
742,-0.010
743,-0.015
744,-0.020
745,-0.025
746,-0.030
747,-0.035
748,-0.035
749,-0.040
750,-0.040
751,-0.045
752,-0.050
753,-0.055
754,-0.065
755,-0.070
756,-0.080
757,-0.085
758,-0.085
759,-0.085
760,-0.080
761,-0.080
762,-0.075
763,-0.070
764,-0.065
765,-0.065
766,-0.065
767,-0.065
768,-0.065
769,-0.065
770,-0.065
771,-0.060
772,-0.055
773,-0.055
774,-0.050
775,-0.050
776,-0.050
777,-0.055
778,-0.060
779,-0.065
780,-0.070
781,-0.070
782,-0.065
783,-0.060
784,-0.050
785,-0.045
786,-0.035
787,-0.030
788,-0.030
789,-0.030
790,-0.035
791,-0.045
792,-0.050
793,-0.055
794,-0.055
795,-0.055
796,-0.050
797,-0.050
798,-0.045
799,-0.040
800,-0.040
801,-0.045
802,-0.045
803,-0.050
804,-0.055
805,-0.055
806,-0.055
807,-0.050
808,-0.045
809,-0.040
810,-0.035
811,-0.030
812,-0.030
813,-0.035
814,-0.040
815,-0.045
816,-0.050
817,-0.050
818,-0.055
819,-0.055
820,-0.050
821,-0.050
822,-0.050
823,-0.045
824,-0.050
825,-0.050
826,-0.050
827,-0.055
828,-0.050
829,-0.050
830,-0.045
831,-0.040
832,-0.040
833,-0.040
834,-0.040
835,-0.045
836,-0.055
837,-0.065
838,-0.075
839,-0.080
840,-0.085
841,-0.085
842,-0.080
843,-0.070
844,-0.065
845,-0.060
846,-0.055
847,-0.055
848,-0.055
849,-0.060
850,-0.065
851,-0.075
852,-0.075
853,-0.080
854,-0.080
855,-0.075
856,-0.070
857,-0.070
858,-0.065
859,-0.065
860,-0.065
861,-0.065
862,-0.065
863,-0.070
864,-0.070
865,-0.070
866,-0.075
867,-0.070
868,-0.070
869,-0.070
870,-0.070
871,-0.075
872,-0.075
873,-0.075
874,-0.075
875,-0.080
876,-0.080
877,-0.080
878,-0.075
879,-0.075
880,-0.070
881,-0.065
882,-0.065
883,-0.065
884,-0.060
885,-0.065
886,-0.065
887,-0.070
888,-0.075
889,-0.075
890,-0.080
891,-0.080
892,-0.085
893,-0.085
894,-0.085
895,-0.080
896,-0.080
897,-0.075
898,-0.075
899,-0.070
900,-0.065
901,-0.060
902,-0.055
903,-0.050
904,-0.050
905,-0.050
906,-0.045
907,-0.045
908,-0.045
909,-0.045
910,-0.045
911,-0.040
912,-0.035
913,-0.030
914,-0.030
915,-0.030
916,-0.030
917,-0.030
918,-0.035
919,-0.040
920,-0.045
921,-0.045
922,-0.045
923,-0.040
924,-0.035
925,-0.025
926,-0.020
927,-0.010
928,-0.005
929,0.000
930,0.000
931,0.000
932,-0.005
933,-0.010
934,-0.020
935,-0.030
936,-0.040
937,-0.055
938,-0.065
939,-0.075
940,-0.080
941,-0.085
942,-0.085
943,-0.085
944,-0.080
945,-0.075
946,-0.075
947,-0.075
948,-0.075
949,-0.080
950,-0.085
951,-0.090
952,-0.095
953,-0.100
954,-0.100
955,-0.100
956,-0.100
957,-0.100
958,-0.100
959,-0.100
960,-0.100
961,-0.105
962,-0.105
963,-0.100
964,-0.100
965,-0.095
966,-0.090
967,-0.085
968,-0.085
969,-0.090
970,-0.090
971,-0.095
972,-0.100
973,-0.105
974,-0.105
975,-0.105
976,-0.105
977,-0.100
978,-0.100
979,-0.095
980,-0.095
981,-0.100
982,-0.105
983,-0.110
984,-0.115
985,-0.120
986,-0.125
987,-0.120
988,-0.110
989,-0.095
990,-0.065
991,-0.025
992,0.030
993,0.095
994,0.175
995,0.270
996,0.365
997,0.460
998,0.550
999,0.620
1000,0.670
1001,0.690
1002,0.675
1003,0.625
1004,0.545
1005,0.445
1006,0.325
1007,0.200
1008,0.080
1009,-0.020
1010,-0.105
1011,-0.160
1012,-0.195
1013,-0.200
1014,-0.190
1015,-0.165
1016,-0.140
1017,-0.105
1018,-0.080
1019,-0.060
1020,-0.045
1021,-0.035
1022,-0.035
1023,-0.035
1024,-0.045
1025,-0.050
1026,-0.060
1027,-0.065
1028,-0.070
1029,-0.070
1030,-0.070
1031,-0.065
1032,-0.055
1033,-0.045
1034,-0.040
1035,-0.030
1036,-0.030
1037,-0.030
1038,-0.030
1039,-0.035
1040,-0.045
1041,-0.050
1042,-0.055
1043,-0.060
1044,-0.055
1045,-0.050
1046,-0.045
1047,-0.035
1048,-0.030
1049,-0.020
1050,-0.020
1051,-0.015
1052,-0.015
1053,-0.020
1054,-0.020
1055,-0.020
1056,-0.020
1057,-0.020
1058,-0.020
1059,-0.015
1060,-0.015
1061,-0.015
1062,-0.020
1063,-0.020
1064,-0.025
1065,-0.025
1066,-0.020
1067,-0.015
1068,-0.010
1069,0.000
1070,0.010
1071,0.020
1072,0.030
1073,0.035
1074,0.040
1075,0.040
1076,0.040
1077,0.040
1078,0.045
1079,0.045
1080,0.045
1081,0.050
1082,0.050
1083,0.055
1084,0.060
1085,0.060
1086,0.065
1087,0.070
1088,0.075
1089,0.080
1090,0.085
1091,0.090
1092,0.100
1093,0.105
1094,0.110
1095,0.120
1096,0.125
1097,0.135
1098,0.150
1099,0.160
1100,0.175
1101,0.190
1102,0.205
1103,0.215
1104,0.220
1105,0.225
1106,0.225
1107,0.220
1108,0.220
1109,0.215
1110,0.215
1111,0.220
1112,0.220
1113,0.225
1114,0.235
1115,0.235
1116,0.240
1117,0.240
1118,0.235
1119,0.230
1120,0.225
1121,0.215
1122,0.210
1123,0.200
1124,0.190
1125,0.175
1126,0.165
1127,0.155
1128,0.140
1129,0.130
1130,0.120
1131,0.110
1132,0.100
1133,0.090
1134,0.085
1135,0.075
1136,0.065
1137,0.055
1138,0.045
1139,0.035
1140,0.025
1141,0.015
1142,0.005
1143,0.000
1144,0.000
1145,-0.005
1146,-0.005
1147,-0.010
1148,-0.010
1149,-0.015
1150,-0.020
1151,-0.025
1152,-0.025
1153,-0.030
1154,-0.035
1155,-0.035
1156,-0.040
1157,-0.045
1158,-0.045
1159,-0.050
1160,-0.050
1161,-0.055
1162,-0.060
1163,-0.060
1164,-0.065
1165,-0.065
1166,-0.070
1167,-0.070
1168,-0.070
1169,-0.065
1170,-0.065
1171,-0.060
1172,-0.055
1173,-0.055
1174,-0.050
1175,-0.045
1176,-0.045
1177,-0.045
1178,-0.045
1179,-0.045
1180,-0.045
1181,-0.050
1182,-0.050
1183,-0.050
1184,-0.045
1185,-0.045
1186,-0.040
1187,-0.040
1188,-0.035
1189,-0.030
1190,-0.025
1191,-0.025
1192,-0.020
1193,-0.020
1194,-0.025
1195,-0.025
1196,-0.030
1197,-0.035
1198,-0.035
1199,-0.035
1200,-0.035
1201,-0.035
1202,-0.030
1203,-0.030
1204,-0.025
1205,-0.025
1206,-0.025
1207,-0.025
1208,-0.030
1209,-0.030
1210,-0.035
1211,-0.040
1212,-0.040
1213,-0.040
1214,-0.040
1215,-0.040
1216,-0.045
1217,-0.045
1218,-0.045
1219,-0.045
1220,-0.050
1221,-0.050
1222,-0.045
1223,-0.045
1224,-0.040
1225,-0.035
1226,-0.030
1227,-0.030
1228,-0.030
1229,-0.030
1230,-0.035
1231,-0.040
1232,-0.045
1233,-0.045
1234,-0.050
1235,-0.050
1236,-0.050
1237,-0.045
1238,-0.045
1239,-0.045
1240,-0.045
1241,-0.045
1242,-0.050
1243,-0.055
1244,-0.060
1245,-0.065
1246,-0.070
1247,-0.070
1248,-0.070
1249,-0.065
1250,-0.060
1251,-0.055
1252,-0.050
1253,-0.045
1254,-0.045
1255,-0.045
1256,-0.050
1257,-0.055
1258,-0.065
1259,-0.070
1260,-0.075
1261,-0.075
1262,-0.075
1263,-0.070
1264,-0.070
1265,-0.065
1266,-0.065
1267,-0.060
1268,-0.060
1269,-0.060
1270,-0.060
1271,-0.055
1272,-0.055
1273,-0.050
1274,-0.050
1275,-0.045
1276,-0.040
1277,-0.040
1278,-0.040
1279,-0.035
1280,-0.035
1281,-0.030
1282,-0.030
1283,-0.030
1284,-0.030
1285,-0.030
1286,-0.035
1287,-0.040
1288,-0.040
1289,-0.045
1290,-0.045
1291,-0.045
1292,-0.040
1293,-0.035
1294,-0.020
1295,-0.010
1296,0.000
1297,0.010
1298,0.015
1299,0.015
1300,0.015
1301,0.015
1302,0.010
1303,0.005
1304,0.000
1305,-0.005
1306,-0.010
1307,-0.015
1308,-0.015
1309,-0.020
1310,-0.025
1311,-0.030
1312,-0.040
1313,-0.045
1314,-0.050
1315,-0.055
1316,-0.060
1317,-0.060
1318,-0.060
1319,-0.060
1320,-0.060
1321,-0.060
1322,-0.060
1323,-0.065
1324,-0.070
1325,-0.070
1326,-0.075
1327,-0.080
1328,-0.080
1329,-0.080
1330,-0.080
1331,-0.080
1332,-0.080
1333,-0.080
1334,-0.080
1335,-0.080
1336,-0.080
1337,-0.080
1338,-0.080
1339,-0.080
1340,-0.075
1341,-0.075
1342,-0.070
1343,-0.075
1344,-0.075
1345,-0.085
1346,-0.090
1347,-0.100
1348,-0.105
1349,-0.110
1350,-0.105
1351,-0.100
1352,-0.095
1353,-0.085
1354,-0.075
1355,-0.065
1356,-0.065
1357,-0.070
1358,-0.080
1359,-0.090
1360,-0.105
1361,-0.115
1362,-0.120
1363,-0.120
1364,-0.110
1365,-0.090
1366,-0.055
1367,-0.015
1368,0.040
1369,0.105
1370,0.180
1371,0.265
1372,0.345
1373,0.425
1374,0.495
1375,0.550
1376,0.585
1377,0.590
1378,0.565
1379,0.510
1380,0.430
1381,0.335
1382,0.225
1383,0.120
1384,0.020
1385,-0.060
1386,-0.125
1387,-0.165
1388,-0.180
1389,-0.180
1390,-0.170
1391,-0.150
1392,-0.125
1393,-0.105
1394,-0.090
1395,-0.080
1396,-0.070
1397,-0.065
1398,-0.060
1399,-0.060
1400,-0.060
1401,-0.055
1402,-0.055
1403,-0.055
1404,-0.055
1405,-0.055
1406,-0.055
1407,-0.060
1408,-0.060
1409,-0.060
1410,-0.060
1411,-0.060
1412,-0.055
1413,-0.050
1414,-0.045
1415,-0.040
1416,-0.035
1417,-0.030
1418,-0.025
1419,-0.015
1420,-0.010
1421,-0.005
1422,0.000
1423,0.000
1424,0.000
1425,-0.005
1426,-0.010
1427,-0.020
1428,-0.025
1429,-0.030
1430,-0.035
1431,-0.035
1432,-0.030
1433,-0.020
1434,-0.010
1435,0.000
1436,0.005
1437,0.010
1438,0.010
1439,0.005
1440,0.000
1441,-0.005
1442,-0.015
1443,-0.020
1444,-0.020
1445,-0.015
1446,-0.010
1447,-0.005
1448,0.005
1449,0.015
1450,0.025
1451,0.030
1452,0.040
1453,0.050
1454,0.055
1455,0.065
1456,0.070
1457,0.075
1458,0.075
1459,0.075
1460,0.075
1461,0.070
1462,0.065
1463,0.060
1464,0.055
1465,0.060
1466,0.065
1467,0.075
1468,0.090
1469,0.110
1470,0.125
1471,0.135
1472,0.145
1473,0.145
1474,0.145
1475,0.140
1476,0.140
1477,0.140
1478,0.140
1479,0.150
1480,0.160
1481,0.175
1482,0.190
1483,0.205
1484,0.215
1485,0.220
1486,0.220
1487,0.215
1488,0.210
1489,0.205
1490,0.200
1491,0.195
1492,0.195
1493,0.195
1494,0.195
1495,0.200
1496,0.195
1497,0.195
1498,0.185
1499,0.175
1500,0.160
1501,0.145
1502,0.130
1503,0.115
1504,0.100
1505,0.090
1506,0.080
1507,0.075
1508,0.070
1509,0.065
1510,0.065
1511,0.060
1512,0.050
1513,0.045
1514,0.035
1515,0.025
1516,0.020
1517,0.010
1518,0.005
1519,0.000
1520,-0.005
1521,-0.010
1522,-0.015
1523,-0.025
1524,-0.030
1525,-0.040
1526,-0.045
1527,-0.050
1528,-0.055
1529,-0.055
1530,-0.055
1531,-0.055
1532,-0.050
1533,-0.055
1534,-0.055
1535,-0.060
1536,-0.065
1537,-0.070
1538,-0.070
1539,-0.070
1540,-0.065
1541,-0.060
1542,-0.055
1543,-0.050
1544,-0.045
1545,-0.040
1546,-0.040
1547,-0.045
1548,-0.045
1549,-0.045
1550,-0.045
1551,-0.045
1552,-0.045
1553,-0.045
1554,-0.050
1555,-0.055
1556,-0.060
1557,-0.065
1558,-0.070
1559,-0.075
1560,-0.070
1561,-0.070
1562,-0.060
1563,-0.055
1564,-0.050
1565,-0.045
1566,-0.045
1567,-0.050
1568,-0.055
1569,-0.060
1570,-0.065
1571,-0.065
1572,-0.065
1573,-0.065
1574,-0.060
1575,-0.055
1576,-0.050
1577,-0.045
1578,-0.045
1579,-0.045
1580,-0.045
1581,-0.040
1582,-0.035
1583,-0.035
1584,-0.030
1585,-0.025
1586,-0.025
1587,-0.030
1588,-0.040
1589,-0.050
1590,-0.060
1591,-0.070
1592,-0.075
1593,-0.070
1594,-0.065
1595,-0.055
1596,-0.040
1597,-0.025
1598,-0.020
1599,-0.015
1600,-0.020
1601,-0.030
1602,-0.045
1603,-0.060
1604,-0.070
1605,-0.075
1606,-0.075
1607,-0.070
1608,-0.060
1609,-0.045
1610,-0.035
1611,-0.030
1612,-0.030
1613,-0.035
1614,-0.045
1615,-0.055
1616,-0.065
1617,-0.075
1618,-0.075
1619,-0.070
1620,-0.065
1621,-0.060
1622,-0.050
1623,-0.045
1624,-0.040
1625,-0.045
1626,-0.045
1627,-0.050
1628,-0.055
1629,-0.055
1630,-0.055
1631,-0.050
1632,-0.045
1633,-0.040
1634,-0.040
1635,-0.040
1636,-0.045
1637,-0.050
1638,-0.060
1639,-0.065
1640,-0.065
1641,-0.065
1642,-0.055
1643,-0.045
1644,-0.035
1645,-0.025
1646,-0.015
1647,-0.010
1648,-0.010
1649,-0.015
1650,-0.025
1651,-0.030
1652,-0.030
1653,-0.030
1654,-0.025
1655,-0.015
1656,-0.005
1657,0.005
1658,0.015
1659,0.015
1660,0.015
1661,0.010
1662,0.000
1663,-0.010
1664,-0.015
1665,-0.020
1666,-0.025
1667,-0.025
1668,-0.020
1669,-0.020
1670,-0.020
1671,-0.025
1672,-0.035
1673,-0.045
1674,-0.055
1675,-0.070
1676,-0.075
1677,-0.080
1678,-0.080
1679,-0.080
1680,-0.075
1681,-0.070
1682,-0.065
1683,-0.065
1684,-0.070
1685,-0.075
1686,-0.080
1687,-0.085
1688,-0.090
1689,-0.095
1690,-0.095
1691,-0.090
1692,-0.085
1693,-0.080
1694,-0.075
1695,-0.070
1696,-0.070
1697,-0.075
1698,-0.075
1699,-0.080
1700,-0.085
1701,-0.090
1702,-0.095
1703,-0.095
1704,-0.095
1705,-0.095
1706,-0.090
1707,-0.090
1708,-0.085
1709,-0.085
1710,-0.085
1711,-0.085
1712,-0.085
1713,-0.085
1714,-0.085
1715,-0.090
1716,-0.095
1717,-0.100
1718,-0.105
1719,-0.105
1720,-0.110
1721,-0.110
1722,-0.105
1723,-0.100
1724,-0.085
1725,-0.065
1726,-0.040
1727,0.000
1728,0.045
1729,0.105
1730,0.175
1731,0.245
1732,0.320
1733,0.390
1734,0.445
1735,0.485
1736,0.500
1737,0.490
1738,0.455
1739,0.395
1740,0.320
1741,0.235
1742,0.150
1743,0.065
1744,-0.010
1745,-0.075
1746,-0.120
1747,-0.150
1748,-0.170
1749,-0.170
1750,-0.165
1751,-0.150
1752,-0.125
1753,-0.100
1754,-0.080
1755,-0.055
1756,-0.040
1757,-0.025
1758,-0.020
1759,-0.020
1760,-0.025
1761,-0.035
1762,-0.045
1763,-0.055
1764,-0.065
1765,-0.070
1766,-0.070
1767,-0.070
1768,-0.065
1769,-0.060
1770,-0.055
1771,-0.055
1772,-0.050
1773,-0.050
1774,-0.050
1775,-0.045
1776,-0.040
1777,-0.035
1778,-0.030
1779,-0.020
1780,-0.010
1781,-0.005
1782,0.000
1783,-0.005
1784,-0.010
1785,-0.015
1786,-0.020
1787,-0.030
1788,-0.035
1789,-0.035
1790,-0.030
1791,-0.025
1792,-0.015
1793,-0.010
1794,-0.005
1795,0.000
1796,0.000
1797,-0.005
1798,-0.010
1799,-0.015
1800,-0.015
1801,-0.015
1802,-0.010
1803,-0.005
1804,0.000
1805,0.010
1806,0.015
1807,0.025
1808,0.030
1809,0.030
1810,0.035
1811,0.040
1812,0.040
1813,0.045
1814,0.045
1815,0.045
1816,0.050
1817,0.050
1818,0.055
1819,0.055
1820,0.060
1821,0.065
1822,0.075
1823,0.080
1824,0.085
1825,0.090
1826,0.095
1827,0.100
1828,0.100
1829,0.105
1830,0.110
1831,0.115
1832,0.125
1833,0.135
1834,0.150
1835,0.165
1836,0.175
1837,0.185
1838,0.195
1839,0.195
1840,0.200
1841,0.200
1842,0.200
1843,0.200
1844,0.200
1845,0.205
1846,0.210
1847,0.215
1848,0.215
1849,0.220
1850,0.215
1851,0.215
1852,0.210
1853,0.210
1854,0.205
1855,0.205
1856,0.200
1857,0.195
1858,0.185
1859,0.175
1860,0.165
1861,0.150
1862,0.135
1863,0.120
1864,0.110
1865,0.100
1866,0.095
1867,0.090
1868,0.085
1869,0.080
1870,0.070
1871,0.060
1872,0.050
1873,0.040
1874,0.025
1875,0.015
1876,0.005
1877,0.000
1878,-0.010
1879,-0.015
1880,-0.020
1881,-0.030
1882,-0.040
1883,-0.050
1884,-0.055
1885,-0.060
1886,-0.060
1887,-0.060
1888,-0.055
1889,-0.050
1890,-0.040
1891,-0.035
1892,-0.030
1893,-0.025
1894,-0.030
1895,-0.035
1896,-0.045
1897,-0.050
1898,-0.060
1899,-0.065
1900,-0.065
1901,-0.065
1902,-0.060
1903,-0.055
1904,-0.045
1905,-0.040
1906,-0.035
1907,-0.035
1908,-0.040
1909,-0.045
1910,-0.050
1911,-0.055
1912,-0.055
1913,-0.055
1914,-0.050
1915,-0.045
1916,-0.035
1917,-0.030
1918,-0.030
1919,-0.035
1920,-0.035
1921,-0.045
1922,-0.050
1923,-0.050
1924,-0.050
1925,-0.045
1926,-0.040
1927,-0.030
1928,-0.025
1929,-0.025
1930,-0.025
1931,-0.030
1932,-0.040
1933,-0.045
1934,-0.045
1935,-0.045
1936,-0.040
1937,-0.035
1938,-0.025
1939,-0.020
1940,-0.020
1941,-0.020
1942,-0.030
1943,-0.035
1944,-0.040
1945,-0.045
1946,-0.040
1947,-0.035
1948,-0.025
1949,-0.015
1950,-0.010
1951,-0.010
1952,-0.010
1953,-0.020
1954,-0.030
1955,-0.040
1956,-0.050
1957,-0.055
1958,-0.060
1959,-0.060
1960,-0.055
1961,-0.050
1962,-0.050
1963,-0.050
1964,-0.050
1965,-0.050
1966,-0.050
1967,-0.050
1968,-0.045
1969,-0.040
1970,-0.030
1971,-0.025
1972,-0.020
1973,-0.020
1974,-0.020
1975,-0.030
1976,-0.040
1977,-0.045
1978,-0.055
1979,-0.060
1980,-0.060
1981,-0.060
1982,-0.060
1983,-0.055
1984,-0.050
1985,-0.050
1986,-0.050
1987,-0.045
1988,-0.045
1989,-0.045
1990,-0.045
1991,-0.045
1992,-0.040
1993,-0.040
1994,-0.035
1995,-0.035
1996,-0.030
1997,-0.025
1998,-0.020
1999,-0.015
2000,-0.005
2001,0.000
2002,0.010
2003,0.015
2004,0.015
2005,0.015
2006,0.010
2007,0.005
2008,0.000
2009,-0.005
2010,-0.005
2011,-0.005
2012,0.000
2013,0.005
2014,0.010
2015,0.010
2016,0.010
2017,0.005
2018,-0.005
2019,-0.015
2020,-0.025
2021,-0.030
2022,-0.035
2023,-0.040
2024,-0.040
2025,-0.040
2026,-0.040
2027,-0.040
2028,-0.040
2029,-0.045
2030,-0.050
2031,-0.050
2032,-0.050
2033,-0.050
2034,-0.045
2035,-0.040
2036,-0.040
2037,-0.035
2038,-0.035
2039,-0.040
2040,-0.045
2041,-0.050
2042,-0.055
2043,-0.060
2044,-0.065
2045,-0.065
2046,-0.070
2047,-0.070
2048,-0.075
2049,-0.075
2050,-0.080
2051,-0.080
2052,-0.085
2053,-0.085
2054,-0.080
2055,-0.080
2056,-0.075
2057,-0.070
2058,-0.070
2059,-0.070
2060,-0.070
2061,-0.070
2062,-0.075
2063,-0.075
2064,-0.080
2065,-0.085
2066,-0.085
2067,-0.085
2068,-0.085
2069,-0.085
2070,-0.085
2071,-0.085
2072,-0.085
2073,-0.090
2074,-0.095
2075,-0.100
2076,-0.105
2077,-0.105
2078,-0.100
2079,-0.085
2080,-0.060
2081,-0.025
2082,0.025
2083,0.085
2084,0.155
2085,0.235
2086,0.310
2087,0.390
2088,0.460
2089,0.520
2090,0.565
2091,0.590
2092,0.590
2093,0.560
2094,0.505
2095,0.430
2096,0.335
2097,0.225
2098,0.115
2099,0.010
2100,-0.075
2101,-0.140
2102,-0.175
2103,-0.185
2104,-0.170
2105,-0.145
2106,-0.110
2107,-0.075
2108,-0.050
2109,-0.035
2110,-0.035
2111,-0.040
2112,-0.050
2113,-0.060
2114,-0.070
2115,-0.075
2116,-0.075
2117,-0.065
2118,-0.060
2119,-0.050
2120,-0.045
2121,-0.040
2122,-0.040
2123,-0.045
2124,-0.050
2125,-0.050
2126,-0.055
2127,-0.055
2128,-0.050
2129,-0.050
2130,-0.040
2131,-0.035
2132,-0.030
2133,-0.020
2134,-0.020
2135,-0.015
2136,-0.015
2137,-0.015
2138,-0.015
2139,-0.015
2140,-0.015
2141,-0.015
2142,-0.015
2143,-0.015
2144,-0.010
2145,-0.010
2146,-0.005
2147,-0.005
2148,-0.005
2149,-0.005
2150,-0.005
2151,-0.005
2152,-0.005
2153,-0.005
2154,0.000
2155,0.000
2156,0.005
2157,0.005
2158,0.010
2159,0.010
2160,0.010
2161,0.010
2162,0.010
2163,0.010
2164,0.010
2165,0.015
2166,0.020
2167,0.025
2168,0.030
2169,0.035
2170,0.040
2171,0.045
2172,0.045
2173,0.050
2174,0.050
2175,0.055
2176,0.065
2177,0.070
2178,0.080
2179,0.085
2180,0.090
2181,0.095
2182,0.100
2183,0.105
2184,0.110
2185,0.115
2186,0.125
2187,0.130
2188,0.140
2189,0.150
2190,0.160
2191,0.165
2192,0.170
2193,0.175
2194,0.175
2195,0.180
2196,0.180
2197,0.185
2198,0.190
2199,0.190
2200,0.195
2201,0.200
2202,0.205
2203,0.205
2204,0.205
2205,0.200
2206,0.200
2207,0.195
2208,0.195
2209,0.190
2210,0.185
2211,0.180
2212,0.170
2213,0.165
2214,0.160
2215,0.155
2216,0.145
2217,0.140
2218,0.130
2219,0.115
2220,0.105
2221,0.085
2222,0.070
2223,0.050
2224,0.035
2225,0.020
2226,0.010
2227,0.005
2228,0.005
2229,0.010
2230,0.010
2231,0.010
2232,0.010
2233,0.000
2234,-0.010
2235,-0.020
2236,-0.030
2237,-0.040
2238,-0.045
2239,-0.050
2240,-0.050
2241,-0.045
2242,-0.045
2243,-0.045
2244,-0.045
2245,-0.050
2246,-0.050
2247,-0.055
2248,-0.055
2249,-0.055
2250,-0.055
2251,-0.050
2252,-0.050
2253,-0.045
2254,-0.045
2255,-0.050
2256,-0.055
2257,-0.060
2258,-0.065
2259,-0.070
2260,-0.075
2261,-0.075
2262,-0.075
2263,-0.075
2264,-0.070
2265,-0.065
2266,-0.065
2267,-0.060
2268,-0.060
2269,-0.060
2270,-0.060
2271,-0.060
2272,-0.055
2273,-0.055
2274,-0.055
2275,-0.055
2276,-0.060
2277,-0.060
2278,-0.065
2279,-0.065
2280,-0.065
2281,-0.065
2282,-0.060
2283,-0.055
2284,-0.055
2285,-0.050
2286,-0.045
2287,-0.040
2288,-0.040
2289,-0.040
2290,-0.035
2291,-0.035
2292,-0.035
2293,-0.035
2294,-0.035
2295,-0.035
2296,-0.035
2297,-0.040
2298,-0.040
2299,-0.040
2300,-0.040
2301,-0.040
2302,-0.040
2303,-0.040
2304,-0.040
2305,-0.040
2306,-0.045
2307,-0.045
2308,-0.050
2309,-0.050
2310,-0.050
2311,-0.050
2312,-0.050
2313,-0.050
2314,-0.045
2315,-0.045
2316,-0.050
2317,-0.050
2318,-0.055
2319,-0.065
2320,-0.070
2321,-0.070
2322,-0.070
2323,-0.065
2324,-0.060
2325,-0.050
2326,-0.040
2327,-0.030
2328,-0.030
2329,-0.035
2330,-0.040
2331,-0.055
2332,-0.070
2333,-0.085
2334,-0.095
2335,-0.100
2336,-0.105
2337,-0.100
2338,-0.090
2339,-0.080
2340,-0.070
2341,-0.060
2342,-0.050
2343,-0.045
2344,-0.045
2345,-0.050
2346,-0.055
2347,-0.065
2348,-0.075
2349,-0.080
2350,-0.090
2351,-0.095
2352,-0.095
2353,-0.095
2354,-0.085
2355,-0.075
2356,-0.065
2357,-0.050
2358,-0.035
2359,-0.020
2360,-0.015
2361,-0.010
2362,-0.015
2363,-0.020
2364,-0.030
2365,-0.040
2366,-0.050
2367,-0.055
2368,-0.060
2369,-0.055
2370,-0.050
2371,-0.045
2372,-0.035
2373,-0.025
2374,-0.020
2375,-0.015
2376,-0.015
2377,-0.015
2378,-0.015
2379,-0.015
2380,-0.010
2381,-0.005
2382,-0.005
2383,0.000
2384,0.005
2385,0.005
2386,0.000
2387,-0.010
2388,-0.020
2389,-0.035
2390,-0.045
2391,-0.055
2392,-0.065
2393,-0.070
2394,-0.070
2395,-0.065
2396,-0.060
2397,-0.055
2398,-0.050
2399,-0.050
2400,-0.055
2401,-0.060
2402,-0.070
2403,-0.080
2404,-0.090
2405,-0.100
2406,-0.100
2407,-0.100
2408,-0.095
2409,-0.085
2410,-0.080
2411,-0.075
2412,-0.070
2413,-0.070
2414,-0.080
2415,-0.090
2416,-0.100
2417,-0.110
2418,-0.120
2419,-0.125
2420,-0.120
2421,-0.115
2422,-0.105
2423,-0.095
2424,-0.090
2425,-0.080
2426,-0.080
2427,-0.080
2428,-0.085
2429,-0.095
2430,-0.100
2431,-0.105
2432,-0.105
2433,-0.105
2434,-0.100
2435,-0.095
2436,-0.095
2437,-0.100
2438,-0.105
2439,-0.115
2440,-0.125
2441,-0.135
2442,-0.145
2443,-0.150
2444,-0.150
2445,-0.140
2446,-0.125
2447,-0.100
2448,-0.065
2449,-0.020
2450,0.030
2451,0.090
2452,0.160
2453,0.240
2454,0.320
2455,0.400
2456,0.480
2457,0.540
2458,0.585
2459,0.610
2460,0.600
2461,0.565
2462,0.500
2463,0.415
2464,0.310
2465,0.205
2466,0.100
2467,0.010
2468,-0.065
2469,-0.115
2470,-0.145
2471,-0.155
2472,-0.145
2473,-0.130
2474,-0.105
2475,-0.085
2476,-0.070
2477,-0.060
2478,-0.055
2479,-0.055
2480,-0.060
2481,-0.070
2482,-0.075
2483,-0.085
2484,-0.090
2485,-0.090
2486,-0.090
2487,-0.085
2488,-0.080
2489,-0.070
2490,-0.065
2491,-0.055
2492,-0.050
2493,-0.045
2494,-0.040
2495,-0.040
2496,-0.040
2497,-0.045
2498,-0.050
2499,-0.055
2500,-0.060
2501,-0.065
2502,-0.065
2503,-0.065
2504,-0.060
2505,-0.050
2506,-0.045
2507,-0.035
2508,-0.025
2509,-0.015
2510,-0.015
2511,-0.015
2512,-0.020
2513,-0.025
2514,-0.035
2515,-0.040
2516,-0.045
2517,-0.050
2518,-0.045
2519,-0.045
2520,-0.035
2521,-0.030
2522,-0.020
2523,-0.015
2524,-0.010
2525,-0.010
2526,-0.005
2527,-0.005
2528,0.000
2529,0.005
2530,0.005
2531,0.010
2532,0.015
2533,0.015
2534,0.015
2535,0.010
2536,0.010
2537,0.005
2538,0.005
2539,0.010
2540,0.015
2541,0.025
2542,0.040
2543,0.050
2544,0.065
2545,0.075
2546,0.080
2547,0.085
2548,0.085
2549,0.085
2550,0.085
2551,0.085
2552,0.085
2553,0.090
2554,0.095
2555,0.105
2556,0.120
2557,0.135
2558,0.150
2559,0.165
2560,0.175
2561,0.190
2562,0.200
2563,0.210
2564,0.215
2565,0.220
2566,0.220
2567,0.220
2568,0.215
2569,0.215
2570,0.210
2571,0.205
2572,0.200
2573,0.200
2574,0.200
2575,0.200
2576,0.200
2577,0.200
2578,0.200
2579,0.200
2580,0.195
2581,0.190
2582,0.180
2583,0.170
2584,0.155
2585,0.135
2586,0.115
2587,0.090
2588,0.070
2589,0.055
2590,0.040
2591,0.030
2592,0.030
2593,0.025
2594,0.030
2595,0.030
2596,0.030
2597,0.030
2598,0.025
2599,0.015
2600,0.005
2601,-0.005
2602,-0.015
2603,-0.025
2604,-0.030
2605,-0.035
2606,-0.035
2607,-0.040
2608,-0.040
2609,-0.045
2610,-0.045
2611,-0.050
2612,-0.050
2613,-0.050
2614,-0.050
2615,-0.050
2616,-0.045
2617,-0.045
2618,-0.045
2619,-0.045
2620,-0.045
2621,-0.050
2622,-0.055
2623,-0.060
2624,-0.065
2625,-0.065
2626,-0.065
2627,-0.065
2628,-0.060
2629,-0.055
2630,-0.050
2631,-0.050
2632,-0.050
2633,-0.050
2634,-0.055
2635,-0.060
2636,-0.065
2637,-0.070
2638,-0.065
2639,-0.060
2640,-0.055
2641,-0.045
2642,-0.040
2643,-0.035
2644,-0.030
2645,-0.030
2646,-0.030
2647,-0.030
2648,-0.035
2649,-0.040
2650,-0.040
2651,-0.040
2652,-0.040
2653,-0.040
2654,-0.040
2655,-0.045
2656,-0.045
2657,-0.050
2658,-0.050
2659,-0.055
2660,-0.050
2661,-0.045
2662,-0.040
2663,-0.030
2664,-0.025
2665,-0.015
2666,-0.015
2667,-0.015
2668,-0.020
2669,-0.025
2670,-0.030
2671,-0.030
2672,-0.035
2673,-0.035
2674,-0.035
2675,-0.035
2676,-0.035
2677,-0.035
2678,-0.040
2679,-0.045
2680,-0.050
2681,-0.050
2682,-0.050
2683,-0.045
2684,-0.040
2685,-0.030
2686,-0.025
2687,-0.020
2688,-0.020
2689,-0.025
2690,-0.030
2691,-0.040
2692,-0.050
2693,-0.055
2694,-0.060
2695,-0.060
2696,-0.060
2697,-0.055
2698,-0.050
2699,-0.045
2700,-0.045
2701,-0.045
2702,-0.045
2703,-0.045
2704,-0.050
2705,-0.050
2706,-0.050
2707,-0.050
2708,-0.050
2709,-0.050
2710,-0.050
2711,-0.050
2712,-0.045
2713,-0.045
2714,-0.045
2715,-0.040
2716,-0.040
2717,-0.035
2718,-0.035
2719,-0.040
2720,-0.040
2721,-0.045
2722,-0.050
2723,-0.055
2724,-0.055
2725,-0.055
2726,-0.055
2727,-0.055
2728,-0.050
2729,-0.050
2730,-0.050
2731,-0.055
2732,-0.060
2733,-0.065
2734,-0.070
2735,-0.070
2736,-0.070
2737,-0.065
2738,-0.060
2739,-0.055
2740,-0.050
2741,-0.045
2742,-0.045
2743,-0.050
2744,-0.055
2745,-0.060
2746,-0.065
2747,-0.070
2748,-0.070
2749,-0.065
2750,-0.060
2751,-0.055
2752,-0.045
2753,-0.040
2754,-0.035
2755,-0.030
2756,-0.030
2757,-0.030
2758,-0.035
2759,-0.035
2760,-0.035
2761,-0.030
2762,-0.025
2763,-0.020
2764,-0.015
2765,-0.015
2766,-0.015
2767,-0.015
2768,-0.020
2769,-0.020
2770,-0.025
2771,-0.025
2772,-0.020
2773,-0.015
2774,-0.005
2775,0.010
2776,0.020
2777,0.025
2778,0.030
2779,0.030
2780,0.025
2781,0.020
2782,0.010
2783,0.000
2784,-0.005
2785,-0.010
2786,-0.015
2787,-0.015
2788,-0.015
2789,-0.015
2790,-0.020
2791,-0.020
2792,-0.030
2793,-0.035
2794,-0.045
2795,-0.050
2796,-0.055
2797,-0.060
2798,-0.060
2799,-0.060
2800,-0.065
2801,-0.065
2802,-0.070
2803,-0.070
2804,-0.075
2805,-0.080
2806,-0.080
2807,-0.080
2808,-0.075
2809,-0.070
2810,-0.060
2811,-0.055
2812,-0.045
2813,-0.045
2814,-0.045
2815,-0.045
2816,-0.055
2817,-0.065
2818,-0.075
2819,-0.085
2820,-0.090
2821,-0.095
2822,-0.095
2823,-0.095
2824,-0.090
2825,-0.085
2826,-0.075
2827,-0.070
2828,-0.065
2829,-0.065
2830,-0.065
2831,-0.070
2832,-0.075
2833,-0.080
2834,-0.085
2835,-0.090
2836,-0.090
2837,-0.090
2838,-0.085
2839,-0.085
2840,-0.080
2841,-0.080
2842,-0.085
2843,-0.090
2844,-0.095
2845,-0.100
2846,-0.100
2847,-0.090
2848,-0.070
2849,-0.035
2850,0.010
2851,0.070
2852,0.145
2853,0.220
2854,0.305
2855,0.385
2856,0.465
2857,0.530
2858,0.585
2859,0.620
2860,0.635
2861,0.620
2862,0.580
2863,0.510
2864,0.420
2865,0.315
2866,0.200
2867,0.095
2868,0.005
2869,-0.070
2870,-0.110
2871,-0.130
2872,-0.125
2873,-0.105
2874,-0.080
2875,-0.050
2876,-0.030
2877,-0.020
2878,-0.015
2879,-0.020
2880,-0.030
2881,-0.040
2882,-0.050
2883,-0.055
2884,-0.055
2885,-0.050
2886,-0.045
2887,-0.045
2888,-0.045
2889,-0.045
2890,-0.045
2891,-0.045
2892,-0.045
2893,-0.040
2894,-0.035
2895,-0.025
2896,-0.015
2897,-0.005
2898,0.000
2899,0.000
2900,0.000
2901,-0.005
2902,-0.015
2903,-0.020
2904,-0.025
2905,-0.025
2906,-0.020
2907,-0.015
2908,-0.005
2909,0.000
2910,0.010
2911,0.010
2912,0.010
2913,0.005
2914,0.000
2915,-0.010
2916,-0.015
2917,-0.020
2918,-0.020
2919,-0.015
2920,-0.010
2921,0.005
2922,0.015
2923,0.025
2924,0.030
2925,0.035
2926,0.030
2927,0.030
2928,0.025
2929,0.020
2930,0.020
2931,0.020
2932,0.030
2933,0.035
2934,0.040
2935,0.045
2936,0.045
2937,0.040
2938,0.040
2939,0.035
2940,0.035
2941,0.040
2942,0.050
2943,0.060
2944,0.080
2945,0.095
2946,0.105
2947,0.110
2948,0.115
2949,0.110
2950,0.105
2951,0.100
2952,0.100
2953,0.100
2954,0.110
2955,0.125
2956,0.140
2957,0.160
2958,0.180
2959,0.190
2960,0.200
2961,0.205
2962,0.210
2963,0.210
2964,0.210
2965,0.215
2966,0.220
2967,0.225
2968,0.230
2969,0.240
2970,0.245
2971,0.250
2972,0.250
2973,0.250
2974,0.250
2975,0.250
2976,0.250
2977,0.245
2978,0.245
2979,0.235
2980,0.225
2981,0.215
2982,0.200
2983,0.185
2984,0.165
2985,0.150
2986,0.135
2987,0.120
2988,0.110
2989,0.105
2990,0.100
2991,0.095
2992,0.090
2993,0.085
2994,0.080
2995,0.075
2996,0.070
2997,0.060
2998,0.050
2999,0.040
3000,0.025
3001,0.015
3002,0.005
3003,-0.005
3004,-0.015
3005,-0.020
3006,-0.020
3007,-0.020
3008,-0.020
3009,-0.015
3010,-0.015
3011,-0.010
3012,-0.010
3013,-0.015
3014,-0.020
3015,-0.025
3016,-0.030
3017,-0.035
3018,-0.040
3019,-0.045
3020,-0.050
3021,-0.055
3022,-0.055
3023,-0.055
3024,-0.055
3025,-0.050
3026,-0.050
3027,-0.045
3028,-0.040
3029,-0.035
3030,-0.035
3031,-0.035
3032,-0.035
3033,-0.040
3034,-0.045
3035,-0.050
3036,-0.050
3037,-0.050
3038,-0.050
3039,-0.045
3040,-0.040
3041,-0.035
3042,-0.030
3043,-0.030
3044,-0.030
3045,-0.030
3046,-0.035
3047,-0.035
3048,-0.030
3049,-0.025
3050,-0.020
3051,-0.015
3052,-0.010
3053,-0.010
3054,-0.015
3055,-0.020
3056,-0.030
3057,-0.040
3058,-0.050
3059,-0.055
3060,-0.055
3061,-0.050
3062,-0.040
3063,-0.030
3064,-0.020
3065,-0.010
3066,-0.010
3067,-0.010
3068,-0.015
3069,-0.025
3070,-0.030
3071,-0.040
3072,-0.050
3073,-0.050
3074,-0.050
3075,-0.050
3076,-0.045
3077,-0.045
3078,-0.040
3079,-0.040
3080,-0.040
3081,-0.040
3082,-0.040
3083,-0.045
3084,-0.045
3085,-0.045
3086,-0.040
3087,-0.040
3088,-0.035
3089,-0.030
3090,-0.025
3091,-0.025
3092,-0.020
3093,-0.020
3094,-0.020
3095,-0.020
3096,-0.020
3097,-0.025
3098,-0.025
3099,-0.030
3100,-0.035
3101,-0.040
3102,-0.045
3103,-0.050
3104,-0.055
3105,-0.060
3106,-0.060
3107,-0.060
3108,-0.055
3109,-0.050
3110,-0.050
3111,-0.045
3112,-0.045
3113,-0.050
3114,-0.055
3115,-0.060
3116,-0.065
3117,-0.070
3118,-0.070
3119,-0.065
3120,-0.060
3121,-0.050
3122,-0.035
3123,-0.025
3124,-0.020
3125,-0.015
3126,-0.015
3127,-0.020
3128,-0.025
3129,-0.030
3130,-0.035
3131,-0.040
3132,-0.045
3133,-0.045
3134,-0.040
3135,-0.040
3136,-0.040
3137,-0.040
3138,-0.040
3139,-0.040
3140,-0.045
3141,-0.045
3142,-0.050
3143,-0.055
3144,-0.060
3145,-0.060
3146,-0.060
3147,-0.060
3148,-0.060
3149,-0.060
3150,-0.055
3151,-0.055
3152,-0.050
3153,-0.050
3154,-0.055
3155,-0.055
3156,-0.060
3157,-0.060
3158,-0.060
3159,-0.060
3160,-0.060
3161,-0.055
3162,-0.050
3163,-0.045
3164,-0.040
3165,-0.040
3166,-0.040
3167,-0.040
3168,-0.045
3169,-0.050
3170,-0.055
3171,-0.060
3172,-0.055
3173,-0.050
3174,-0.045
3175,-0.040
3176,-0.030
3177,-0.030
3178,-0.030
3179,-0.035
3180,-0.040
3181,-0.050
3182,-0.065
3183,-0.070
3184,-0.080
3185,-0.080
3186,-0.075
3187,-0.070
3188,-0.060
3189,-0.055
3190,-0.045
3191,-0.040
3192,-0.035
3193,-0.035
3194,-0.040
3195,-0.040
3196,-0.045
3197,-0.050
3198,-0.055
3199,-0.060
3200,-0.060
3201,-0.065
3202,-0.070
3203,-0.070
3204,-0.075
3205,-0.080
3206,-0.080
3207,-0.080
3208,-0.075
3209,-0.070
3210,-0.065
3211,-0.055
3212,-0.050
3213,-0.045
3214,-0.040
3215,-0.040
3216,-0.040
3217,-0.040
3218,-0.040
3219,-0.035
3220,-0.035
3221,-0.030
3222,-0.025
3223,-0.020
3224,-0.015
3225,-0.010
3226,-0.010
3227,-0.010
3228,-0.010
3229,-0.010
3230,-0.010
3231,-0.010
3232,-0.010
3233,-0.005
3234,0.000
3235,0.005
3236,0.005
3237,0.005
3238,0.005
3239,0.005
3240,0.005
3241,0.005
3242,0.000
3243,0.000
3244,0.000
3245,-0.005
3246,-0.010
3247,-0.020
3248,-0.025
3249,-0.035
3250,-0.040
3251,-0.050
3252,-0.055
3253,-0.055
3254,-0.055
3255,-0.055
3256,-0.055
3257,-0.060
3258,-0.060
3259,-0.060
3260,-0.065
3261,-0.065
3262,-0.065
3263,-0.065
3264,-0.060
3265,-0.055
3266,-0.055
3267,-0.055
3268,-0.055
3269,-0.060
3270,-0.070
3271,-0.075
3272,-0.080
3273,-0.085
3274,-0.085
3275,-0.080
3276,-0.070
3277,-0.065
3278,-0.055
3279,-0.055
3280,-0.050
3281,-0.055
3282,-0.060
3283,-0.060
3284,-0.065
3285,-0.065
3286,-0.065
3287,-0.065
3288,-0.060
3289,-0.060
3290,-0.055
3291,-0.060
3292,-0.065
3293,-0.070
3294,-0.075
3295,-0.080
3296,-0.085
3297,-0.085
3298,-0.085
3299,-0.085
3300,-0.085
3301,-0.090
3302,-0.090
3303,-0.095
3304,-0.095
3305,-0.090
3306,-0.075
3307,-0.050
3308,-0.010
3309,0.045
3310,0.110
3311,0.190
3312,0.270
3313,0.350
3314,0.430
3315,0.495
3316,0.550
3317,0.580
3318,0.590
3319,0.570
3320,0.525
3321,0.455
3322,0.365
3323,0.265
3324,0.160
3325,0.060
3326,-0.030
3327,-0.100
3328,-0.155
3329,-0.180
3330,-0.190
3331,-0.180
3332,-0.160
3333,-0.130
3334,-0.105
3335,-0.080
3336,-0.060
3337,-0.050
3338,-0.040
3339,-0.040
3340,-0.045
3341,-0.045
3342,-0.050
3343,-0.055
3344,-0.055
3345,-0.060
3346,-0.060
3347,-0.055
3348,-0.055
3349,-0.050
3350,-0.045
3351,-0.040
3352,-0.035
3353,-0.025
3354,-0.015
3355,-0.010
3356,-0.005
3357,0.000
3358,0.000
3359,-0.010
3360,-0.015
3361,-0.030
3362,-0.040
3363,-0.050
3364,-0.055
3365,-0.055
3366,-0.050
3367,-0.040
3368,-0.030
3369,-0.020
3370,-0.015
3371,-0.010
3372,-0.010
3373,-0.010
3374,-0.010
3375,-0.010
3376,-0.010
3377,-0.005
3378,0.000
3379,0.010
3380,0.015
3381,0.020
3382,0.020
3383,0.020
3384,0.020
3385,0.015
3386,0.015
3387,0.020
3388,0.025
3389,0.030
3390,0.040
3391,0.045
3392,0.050
3393,0.050
3394,0.050
3395,0.045
3396,0.040
3397,0.035
3398,0.030
3399,0.035
3400,0.040
3401,0.055
3402,0.065
3403,0.075
3404,0.085
3405,0.095
3406,0.100
3407,0.100
3408,0.100
3409,0.100
3410,0.105
3411,0.115
3412,0.120
3413,0.135
3414,0.150
3415,0.160
3416,0.175
3417,0.185
3418,0.190
3419,0.195
3420,0.195
3421,0.195
3422,0.195
3423,0.190
3424,0.195
3425,0.195
3426,0.200
3427,0.205
3428,0.210
3429,0.220
3430,0.225
3431,0.230
3432,0.230
3433,0.230
3434,0.230
3435,0.225
3436,0.220
3437,0.210
3438,0.200
3439,0.185
3440,0.175
3441,0.165
3442,0.150
3443,0.140
3444,0.135
3445,0.125
3446,0.120
3447,0.115
3448,0.105
3449,0.100
3450,0.090
3451,0.080
3452,0.070
3453,0.055
3454,0.045
3455,0.035
3456,0.030
3457,0.025
3458,0.020
3459,0.020
3460,0.020
3461,0.015
3462,0.010
3463,0.005
3464,-0.005
3465,-0.015
3466,-0.020
3467,-0.030
3468,-0.035
3469,-0.035
3470,-0.035
3471,-0.035
3472,-0.030
3473,-0.030
3474,-0.030
3475,-0.030
3476,-0.035
3477,-0.045
3478,-0.050
3479,-0.055
3480,-0.060
3481,-0.060
3482,-0.060
3483,-0.055
3484,-0.045
3485,-0.045
3486,-0.040
3487,-0.040
3488,-0.045
3489,-0.050
3490,-0.060
3491,-0.065
3492,-0.070
3493,-0.070
3494,-0.070
3495,-0.065
3496,-0.055
3497,-0.050
3498,-0.045
3499,-0.040
3500,-0.040
3501,-0.045
3502,-0.050
3503,-0.050
3504,-0.055
3505,-0.050
3506,-0.045
3507,-0.040
3508,-0.030
3509,-0.020
3510,-0.010
3511,-0.010
3512,-0.010
3513,-0.015
3514,-0.025
3515,-0.030
3516,-0.040
3517,-0.045
3518,-0.045
3519,-0.045
3520,-0.040
3521,-0.035
3522,-0.030
3523,-0.030
3524,-0.025
3525,-0.030
3526,-0.030
3527,-0.035
3528,-0.040
3529,-0.045
3530,-0.045
3531,-0.045
3532,-0.045
3533,-0.045
3534,-0.045
3535,-0.045
3536,-0.045
3537,-0.040
3538,-0.040
3539,-0.035
3540,-0.030
3541,-0.025
3542,-0.025
3543,-0.020
3544,-0.020
3545,-0.020
3546,-0.025
3547,-0.030
3548,-0.040
3549,-0.045
3550,-0.050
3551,-0.050
3552,-0.050
3553,-0.050
3554,-0.045
3555,-0.045
3556,-0.045
3557,-0.050
3558,-0.050
3559,-0.055
3560,-0.060
3561,-0.060
3562,-0.060
3563,-0.055
3564,-0.050
3565,-0.050
3566,-0.045
3567,-0.045
3568,-0.050
3569,-0.055
3570,-0.060
3571,-0.065
3572,-0.070
3573,-0.070
3574,-0.065
3575,-0.055
3576,-0.045
3577,-0.030
3578,-0.020
3579,-0.015
3580,-0.015
3581,-0.020
3582,-0.025
3583,-0.035
3584,-0.045
3585,-0.055
3586,-0.060
3587,-0.065
3588,-0.065
3589,-0.065
3590,-0.065
3591,-0.070
3592,-0.070
3593,-0.070
3594,-0.070
3595,-0.065
3596,-0.065
3597,-0.060
3598,-0.055
3599,-0.050
3600,-0.050
3601,-0.050
3602,-0.060
3603,-0.065
3604,-0.070
3605,-0.075
3606,-0.075
3607,-0.075
3608,-0.065
3609,-0.060
3610,-0.050
3611,-0.045
3612,-0.040
3613,-0.040
3614,-0.045
3615,-0.050
3616,-0.055
3617,-0.060
3618,-0.060
3619,-0.060
3620,-0.055
3621,-0.055
3622,-0.050
3623,-0.050
3624,-0.055
3625,-0.055
3626,-0.060
3627,-0.065
3628,-0.070
3629,-0.070
3630,-0.065
3631,-0.065
3632,-0.060
3633,-0.060
3634,-0.055
3635,-0.055
3636,-0.055
3637,-0.060
3638,-0.060
3639,-0.065
3640,-0.065
3641,-0.065
3642,-0.060
3643,-0.060
3644,-0.055
3645,-0.050
3646,-0.050
3647,-0.045
3648,-0.045
3649,-0.045
3650,-0.040
3651,-0.035
3652,-0.035
3653,-0.030
3654,-0.020
3655,-0.015
3656,-0.010
3657,-0.005
3658,-0.005
3659,-0.005
3660,-0.005
3661,-0.010
3662,-0.010
3663,-0.010
3664,-0.010
3665,-0.010
3666,-0.005
3667,0.000
3668,0.010
3669,0.010
3670,0.010
3671,0.005
3672,0.000
3673,-0.015
3674,-0.025
3675,-0.040
3676,-0.050
3677,-0.055
3678,-0.060
3679,-0.055
3680,-0.050
3681,-0.045
3682,-0.040
3683,-0.035
3684,-0.035
3685,-0.040
3686,-0.045
3687,-0.050
3688,-0.060
3689,-0.060
3690,-0.060
3691,-0.060
3692,-0.055
3693,-0.050
3694,-0.045
3695,-0.045
3696,-0.050
3697,-0.055
3698,-0.065
3699,-0.075
3700,-0.085
3701,-0.085
3702,-0.085
3703,-0.085
3704,-0.075
3705,-0.070
3706,-0.065
3707,-0.065
3708,-0.065
3709,-0.070
3710,-0.075
3711,-0.075
3712,-0.075
3713,-0.075
3714,-0.070
3715,-0.060
3716,-0.055
3717,-0.055
3718,-0.050
3719,-0.055
3720,-0.060
3721,-0.070
3722,-0.075
3723,-0.080
3724,-0.085
3725,-0.085
3726,-0.080
3727,-0.075
3728,-0.075
3729,-0.075
3730,-0.070
3731,-0.075
3732,-0.075
3733,-0.070
3734,-0.060
3735,-0.045
3736,-0.015
3737,0.030
3738,0.080
3739,0.150
3740,0.225
3741,0.310
3742,0.390
3743,0.470
3744,0.530
3745,0.575
3746,0.590
3747,0.580
3748,0.540
3749,0.475
3750,0.390
3751,0.290
3752,0.185
3753,0.090
3754,0.005
3755,-0.060
3756,-0.105
3757,-0.130
3758,-0.135
3759,-0.130
3760,-0.110
3761,-0.090
3762,-0.070
3763,-0.050
3764,-0.035
3765,-0.025
3766,-0.020
3767,-0.020
3768,-0.025
3769,-0.030
3770,-0.035
3771,-0.045
3772,-0.050
3773,-0.055
3774,-0.055
3775,-0.055
3776,-0.055
3777,-0.050
3778,-0.045
3779,-0.040
3780,-0.035
3781,-0.030
3782,-0.030
3783,-0.030
3784,-0.030
3785,-0.025
3786,-0.025
3787,-0.020
3788,-0.015
3789,-0.010
3790,-0.010
3791,-0.010
3792,-0.010
3793,-0.015
3794,-0.025
3795,-0.030
3796,-0.030
3797,-0.030
3798,-0.025
3799,-0.020
3800,-0.010
3801,0.000
3802,0.010
3803,0.015
3804,0.015
3805,0.015
3806,0.010
3807,0.005
3808,0.000
3809,-0.005
3810,-0.005
3811,-0.005
3812,0.000
3813,0.000
3814,0.005
3815,0.010
3816,0.015
3817,0.020
3818,0.025
3819,0.025
3820,0.030
3821,0.035
3822,0.040
3823,0.045
3824,0.050
3825,0.055
3826,0.055
3827,0.060
3828,0.065
3829,0.070
3830,0.075
3831,0.075
3832,0.080
3833,0.085
3834,0.090
3835,0.090
3836,0.095
3837,0.100
3838,0.110
3839,0.115
3840,0.125
3841,0.135
3842,0.150
3843,0.160
3844,0.175
3845,0.185
3846,0.190
3847,0.200
3848,0.200
3849,0.205
3850,0.205
3851,0.205
3852,0.205
3853,0.205
3854,0.205
3855,0.210
3856,0.210
3857,0.220
3858,0.225
3859,0.230
3860,0.230
3861,0.230
3862,0.230
3863,0.225
3864,0.215
3865,0.205
3866,0.195
3867,0.190
3868,0.185
3869,0.180
3870,0.175
3871,0.170
3872,0.165
3873,0.160
3874,0.150
3875,0.135
3876,0.120
3877,0.105
3878,0.090
3879,0.075
3880,0.065
3881,0.060
3882,0.055
3883,0.055
3884,0.050
3885,0.045
3886,0.040
3887,0.030
3888,0.015
3889,0.000
3890,-0.010
3891,-0.025
3892,-0.030
3893,-0.035
3894,-0.040
3895,-0.035
3896,-0.035
3897,-0.030
3898,-0.025
3899,-0.025
3900,-0.020
3901,-0.015
3902,-0.015
3903,-0.010
3904,-0.010
3905,-0.010
3906,-0.015
3907,-0.020
3908,-0.025
3909,-0.035
3910,-0.045
3911,-0.050
3912,-0.060
3913,-0.060
3914,-0.060
3915,-0.055
3916,-0.050
3917,-0.040
3918,-0.035
3919,-0.030
3920,-0.025
3921,-0.030
3922,-0.035
3923,-0.040
3924,-0.050
3925,-0.060
3926,-0.065
3927,-0.065
3928,-0.065
3929,-0.060
3930,-0.050
3931,-0.040
3932,-0.030
3933,-0.025
3934,-0.020
3935,-0.015
3936,-0.020
3937,-0.025
3938,-0.030
3939,-0.035
3940,-0.040
3941,-0.040
3942,-0.035
3943,-0.030
3944,-0.020
3945,-0.010
3946,-0.005
3947,0.000
3948,0.005
3949,0.000
3950,-0.005
3951,-0.015
3952,-0.025
3953,-0.035
3954,-0.040
3955,-0.045
3956,-0.050
3957,-0.045
3958,-0.045
3959,-0.040
3960,-0.035
3961,-0.030
3962,-0.030
3963,-0.030
3964,-0.030
3965,-0.030
3966,-0.030
3967,-0.030
3968,-0.030
3969,-0.025
3970,-0.025
3971,-0.025
3972,-0.020
3973,-0.020
3974,-0.025
3975,-0.025
3976,-0.025
3977,-0.025
3978,-0.025
3979,-0.025
3980,-0.025
3981,-0.025
3982,-0.025
3983,-0.030
3984,-0.040
3985,-0.050
3986,-0.060
3987,-0.070
3988,-0.075
3989,-0.080
3990,-0.080
3991,-0.075
3992,-0.065
3993,-0.060
3994,-0.050
3995,-0.045
3996,-0.045
3997,-0.045
3998,-0.045
3999,-0.045
4000,-0.050
4001,-0.050
4002,-0.050
4003,-0.045
4004,-0.045
4005,-0.045
4006,-0.040
4007,-0.040
4008,-0.045
4009,-0.045
4010,-0.050
4011,-0.055
4012,-0.055
4013,-0.060
4014,-0.060
4015,-0.065
4016,-0.065
4017,-0.065
4018,-0.060
4019,-0.060
4020,-0.055
4021,-0.050
4022,-0.045
4023,-0.045
4024,-0.040
4025,-0.045
4026,-0.045
4027,-0.055
4028,-0.060
4029,-0.070
4030,-0.075
4031,-0.080
4032,-0.080
4033,-0.075
4034,-0.075
4035,-0.065
4036,-0.065
4037,-0.060
4038,-0.060
4039,-0.060
4040,-0.060
4041,-0.065
4042,-0.065
4043,-0.070
4044,-0.070
4045,-0.065
4046,-0.065
4047,-0.060
4048,-0.060
4049,-0.055
4050,-0.055
4051,-0.055
4052,-0.055
4053,-0.055
4054,-0.055
4055,-0.055
4056,-0.060
4057,-0.060
4058,-0.060
4059,-0.065
4060,-0.065
4061,-0.065
4062,-0.065
4063,-0.065
4064,-0.060
4065,-0.060
4066,-0.060
4067,-0.060
4068,-0.060
4069,-0.060
4070,-0.065
4071,-0.065
4072,-0.065
4073,-0.060
4074,-0.060
4075,-0.055
4076,-0.045
4077,-0.040
4078,-0.035
4079,-0.030
4080,-0.025
4081,-0.025
4082,-0.025
4083,-0.025
4084,-0.030
4085,-0.035
4086,-0.040
4087,-0.045
4088,-0.050
4089,-0.050
4090,-0.045
4091,-0.040
4092,-0.030
4093,-0.020
4094,-0.010
4095,0.000
4096,0.005
4097,0.010
4098,0.015
4099,0.015
4100,0.015
4101,0.010
4102,0.005
4103,0.005
4104,0.000
4105,-0.005
4106,-0.010
4107,-0.015
4108,-0.020
4109,-0.025
4110,-0.030
4111,-0.030
4112,-0.035
4113,-0.040
4114,-0.045
4115,-0.050
4116,-0.055
4117,-0.060
4118,-0.065
4119,-0.065
4120,-0.070
4121,-0.070
4122,-0.070
4123,-0.065
4124,-0.065
4125,-0.065
4126,-0.065
4127,-0.065
4128,-0.065
4129,-0.065
4130,-0.065
4131,-0.065
4132,-0.070
4133,-0.070
4134,-0.075
4135,-0.075
4136,-0.080
4137,-0.080
4138,-0.080
4139,-0.080
4140,-0.080
4141,-0.080
4142,-0.080
4143,-0.080
4144,-0.080
4145,-0.080
4146,-0.080
4147,-0.085
4148,-0.090
4149,-0.095
4150,-0.095
4151,-0.095
4152,-0.090
4153,-0.085
4154,-0.080
4155,-0.075
4156,-0.075
4157,-0.075
4158,-0.075
4159,-0.080
4160,-0.085
4161,-0.095
4162,-0.100
4163,-0.100
4164,-0.100
4165,-0.095
4166,-0.085
4167,-0.065
4168,-0.035
4169,0.005
4170,0.050
4171,0.110
4172,0.180
4173,0.260
4174,0.340
4175,0.425
4176,0.500
4177,0.560
4178,0.605
4179,0.620
4180,0.605
4181,0.565
4182,0.490
4183,0.400
4184,0.290
4185,0.180
4186,0.070
4187,-0.020
4188,-0.090
4189,-0.135
4190,-0.155
4191,-0.160
4192,-0.145
4193,-0.120
4194,-0.090
4195,-0.070
4196,-0.050
4197,-0.040
4198,-0.035
4199,-0.035
4200,-0.035
4201,-0.035
4202,-0.035
4203,-0.035
4204,-0.035
4205,-0.035
4206,-0.040
4207,-0.040
4208,-0.050
4209,-0.055
4210,-0.055
4211,-0.060
4212,-0.055
4213,-0.050
4214,-0.045
4215,-0.040
4216,-0.035
4217,-0.035
4218,-0.035
4219,-0.040
4220,-0.045
4221,-0.050
4222,-0.050
4223,-0.045
4224,-0.040
4225,-0.030
4226,-0.020
4227,-0.010
4228,-0.005
4229,-0.005
4230,-0.005
4231,-0.010
4232,-0.015
4233,-0.020
4234,-0.020
4235,-0.015
4236,-0.005
4237,0.005
4238,0.015
4239,0.020
4240,0.025
4241,0.025
4242,0.020
4243,0.015
4244,0.005
4245,-0.005
4246,-0.010
4247,-0.010
4248,-0.005
4249,0.005
4250,0.010
4251,0.020
4252,0.030
4253,0.035
4254,0.040
4255,0.040
4256,0.040
4257,0.040
4258,0.040
4259,0.045
4260,0.050
4261,0.055
4262,0.060
4263,0.070
4264,0.075
4265,0.080
4266,0.085
4267,0.090
4268,0.095
4269,0.095
4270,0.100
4271,0.105
4272,0.115
4273,0.120
4274,0.130
4275,0.140
4276,0.150
4277,0.160
4278,0.165
4279,0.175
4280,0.185
4281,0.190
4282,0.190
4283,0.195
4284,0.195
4285,0.195
4286,0.195
4287,0.195
4288,0.200
4289,0.205
4290,0.210
4291,0.220
4292,0.225
4293,0.225
4294,0.225
4295,0.220
4296,0.210
4297,0.200
4298,0.190
4299,0.185
4300,0.180
4301,0.180
4302,0.180
4303,0.185
4304,0.185
4305,0.180
4306,0.170
4307,0.150
4308,0.130
4309,0.110
4310,0.085
4311,0.070
4312,0.055
4313,0.050
4314,0.045
4315,0.045
4316,0.045
4317,0.040
4318,0.035
4319,0.030
4320,0.015
4321,0.005
4322,-0.005
4323,-0.015
4324,-0.015
4325,-0.020
4326,-0.015
4327,-0.010
4328,-0.010
4329,-0.010
4330,-0.015
4331,-0.020
4332,-0.030
4333,-0.040
4334,-0.050
4335,-0.055
4336,-0.060
4337,-0.055
4338,-0.050
4339,-0.045
4340,-0.035
4341,-0.030
4342,-0.030
4343,-0.030
4344,-0.035
4345,-0.040
4346,-0.045
4347,-0.050
4348,-0.050
4349,-0.050
4350,-0.045
4351,-0.040
4352,-0.035
4353,-0.030
4354,-0.025
4355,-0.030
4356,-0.030
4357,-0.040
4358,-0.045
4359,-0.055
4360,-0.065
4361,-0.070
4362,-0.070
4363,-0.065
4364,-0.060
4365,-0.050
4366,-0.040
4367,-0.030
4368,-0.025
4369,-0.025
4370,-0.020
4371,-0.025
4372,-0.030
4373,-0.035
4374,-0.040
4375,-0.045
4376,-0.045
4377,-0.045
4378,-0.045
4379,-0.040
4380,-0.035
4381,-0.035
4382,-0.030
4383,-0.030
4384,-0.030
4385,-0.035
4386,-0.035
4387,-0.035
4388,-0.035
4389,-0.035
4390,-0.035
4391,-0.035
4392,-0.035
4393,-0.035
4394,-0.040
4395,-0.045
4396,-0.045
4397,-0.040
4398,-0.040
4399,-0.030
4400,-0.025
4401,-0.020
4402,-0.015
4403,-0.015
4404,-0.020
4405,-0.020
4406,-0.025
4407,-0.030
4408,-0.035
4409,-0.040
4410,-0.040
4411,-0.040
4412,-0.040
4413,-0.040
4414,-0.040
4415,-0.040
4416,-0.040
4417,-0.040
4418,-0.040
4419,-0.040
4420,-0.040
4421,-0.040
4422,-0.040
4423,-0.045
4424,-0.050
4425,-0.055
4426,-0.060
4427,-0.065
4428,-0.070
4429,-0.065
4430,-0.060
4431,-0.055
4432,-0.045
4433,-0.035
4434,-0.030
4435,-0.030
4436,-0.030
4437,-0.035
4438,-0.045
4439,-0.050
4440,-0.055
4441,-0.055
4442,-0.055
4443,-0.050
4444,-0.050
4445,-0.045
4446,-0.045
4447,-0.045
4448,-0.050
4449,-0.055
4450,-0.065
4451,-0.070
4452,-0.070
4453,-0.070
4454,-0.065
4455,-0.060
4456,-0.055
4457,-0.045
4458,-0.045
4459,-0.040
4460,-0.040
4461,-0.040
4462,-0.040
4463,-0.045
4464,-0.045
4465,-0.045
4466,-0.045
4467,-0.040
4468,-0.040
4469,-0.040
4470,-0.040
4471,-0.040
4472,-0.040
4473,-0.040
4474,-0.040
4475,-0.045
4476,-0.050
4477,-0.055
4478,-0.055
4479,-0.060
4480,-0.065
4481,-0.065
4482,-0.065
4483,-0.065
4484,-0.060
4485,-0.055
4486,-0.050
4487,-0.045
4488,-0.045
4489,-0.045
4490,-0.050
4491,-0.050
4492,-0.055
4493,-0.060
4494,-0.060
4495,-0.060
4496,-0.055
4497,-0.055
4498,-0.050
4499,-0.045
4500,-0.045
4501,-0.045
4502,-0.045
4503,-0.045
4504,-0.045
4505,-0.045
4506,-0.040
4507,-0.035
4508,-0.030
4509,-0.025
4510,-0.020
4511,-0.015
4512,-0.010
4513,-0.010
4514,-0.010
4515,-0.010
4516,-0.010
4517,-0.005
4518,-0.005
4519,0.000
4520,0.005
4521,0.010
4522,0.015
4523,0.015
4524,0.015
4525,0.010
4526,0.010
4527,0.005
4528,0.000
4529,0.000
4530,-0.005
4531,-0.005
4532,-0.005
4533,-0.005
4534,-0.005
4535,-0.010
4536,-0.015
4537,-0.025
4538,-0.030
4539,-0.040
4540,-0.045
4541,-0.050
4542,-0.055
4543,-0.055
4544,-0.055
4545,-0.050
4546,-0.050
4547,-0.045
4548,-0.050
4549,-0.050
4550,-0.055
4551,-0.060
4552,-0.060
4553,-0.065
4554,-0.065
4555,-0.065
4556,-0.060
4557,-0.060
4558,-0.060
4559,-0.060
4560,-0.065
4561,-0.070
4562,-0.075
4563,-0.075
4564,-0.080
4565,-0.075
4566,-0.070
4567,-0.065
4568,-0.060
4569,-0.055
4570,-0.050
4571,-0.055
4572,-0.060
4573,-0.065
4574,-0.070
4575,-0.075
4576,-0.080
4577,-0.085
4578,-0.085
4579,-0.080
4580,-0.080
4581,-0.080
4582,-0.085
4583,-0.085
4584,-0.090
4585,-0.095
4586,-0.095
4587,-0.095
4588,-0.085
4589,-0.065
4590,-0.040
4591,0.000
4592,0.045
4593,0.100
4594,0.170
4595,0.245
4596,0.325
4597,0.405
4598,0.480
4599,0.540
4600,0.585
4601,0.600
4602,0.590
4603,0.550
4604,0.485
4605,0.395
4606,0.290
4607,0.180
4608,0.075
4609,-0.015
4610,-0.085
4611,-0.130
4612,-0.155
4613,-0.160
4614,-0.145
4615,-0.125
4616,-0.100
4617,-0.080
4618,-0.065
4619,-0.055
4620,-0.050
4621,-0.055
4622,-0.060
4623,-0.065
4624,-0.065
4625,-0.065
4626,-0.060
4627,-0.055
4628,-0.050
4629,-0.040
4630,-0.035
4631,-0.035
4632,-0.035
4633,-0.035
4634,-0.040
4635,-0.040
4636,-0.040
4637,-0.040
4638,-0.040
4639,-0.035
4640,-0.035
4641,-0.035
4642,-0.035
4643,-0.035
4644,-0.040
4645,-0.040
4646,-0.040
4647,-0.040
4648,-0.035
4649,-0.025
4650,-0.020
4651,-0.015
4652,-0.010
4653,-0.010
4654,-0.015
4655,-0.020
4656,-0.025
4657,-0.030
4658,-0.030
4659,-0.030
4660,-0.025
4661,-0.015
4662,-0.010
4663,0.000
4664,0.000
4665,0.005
4666,0.005
4667,0.000
4668,0.000
4669,0.000
4670,0.005
4671,0.010
4672,0.015
4673,0.025
4674,0.030
4675,0.035
4676,0.035
4677,0.035
4678,0.035
4679,0.035
4680,0.040
4681,0.040
4682,0.045
4683,0.055
4684,0.060
4685,0.070
4686,0.075
4687,0.080
4688,0.090
4689,0.095
4690,0.100
4691,0.105
4692,0.110
4693,0.120
4694,0.125
4695,0.130
4696,0.140
4697,0.145
4698,0.150
4699,0.160
4700,0.165
4701,0.175
4702,0.185
4703,0.195
4704,0.200
4705,0.210
4706,0.215
4707,0.220
4708,0.225
4709,0.225
4710,0.225
4711,0.225
4712,0.225
4713,0.225
4714,0.220
4715,0.220
4716,0.215
4717,0.215
4718,0.215
4719,0.210
4720,0.205
4721,0.205
4722,0.200
4723,0.190
4724,0.180
4725,0.175
4726,0.165
4727,0.155
4728,0.145
4729,0.135
4730,0.125
4731,0.120
4732,0.110
4733,0.100
4734,0.090
4735,0.080
4736,0.065
4737,0.055
4738,0.045
4739,0.035
4740,0.025
4741,0.020
4742,0.015
4743,0.010
4744,0.005
4745,0.005
4746,0.000
4747,-0.005
4748,-0.015
4749,-0.020
4750,-0.030
4751,-0.035
4752,-0.045
4753,-0.050
4754,-0.050
4755,-0.055
4756,-0.050
4757,-0.050
4758,-0.050
4759,-0.045
4760,-0.040
4761,-0.040
4762,-0.035
4763,-0.035
4764,-0.035
4765,-0.035
4766,-0.035
4767,-0.040
4768,-0.045
4769,-0.050
4770,-0.055
4771,-0.055
4772,-0.060
4773,-0.060
4774,-0.060
4775,-0.060
4776,-0.060
4777,-0.060
4778,-0.055
4779,-0.055
4780,-0.060
4781,-0.060
4782,-0.060
4783,-0.060
4784,-0.055
4785,-0.050
4786,-0.040
4787,-0.035
4788,-0.025
4789,-0.020
4790,-0.020
4791,-0.020
4792,-0.025
4793,-0.035
4794,-0.045
4795,-0.050
4796,-0.055
4797,-0.055
4798,-0.050
4799,-0.040
4800,-0.025
4801,-0.015
4802,-0.005
4803,0.000
4804,0.000
4805,0.000
4806,-0.005
4807,-0.010
4808,-0.015
4809,-0.020
4810,-0.025
4811,-0.030
4812,-0.035
4813,-0.040
4814,-0.045
4815,-0.050
4816,-0.055
4817,-0.055
4818,-0.055
4819,-0.055
4820,-0.050
4821,-0.045
4822,-0.035
4823,-0.035
4824,-0.030
4825,-0.035
4826,-0.035
4827,-0.045
4828,-0.050
4829,-0.055
4830,-0.060
4831,-0.060
4832,-0.060
4833,-0.055
4834,-0.050
4835,-0.045
4836,-0.040
4837,-0.035
4838,-0.035
4839,-0.040
4840,-0.045
4841,-0.050
4842,-0.060
4843,-0.065
4844,-0.075
4845,-0.080
4846,-0.080
4847,-0.080
4848,-0.080
4849,-0.080
4850,-0.075
4851,-0.070
4852,-0.065
4853,-0.060
4854,-0.055
4855,-0.055
4856,-0.050
4857,-0.050
4858,-0.055
4859,-0.055
4860,-0.060
4861,-0.060
4862,-0.065
4863,-0.065
4864,-0.060
4865,-0.060
4866,-0.060
4867,-0.055
4868,-0.055
4869,-0.060
4870,-0.060
4871,-0.065
4872,-0.065
4873,-0.065
4874,-0.065
4875,-0.065
4876,-0.060
4877,-0.055
4878,-0.055
4879,-0.055
4880,-0.055
4881,-0.060
4882,-0.065
4883,-0.070
4884,-0.080
4885,-0.085
4886,-0.090
4887,-0.090
4888,-0.085
4889,-0.080
4890,-0.075
4891,-0.070
4892,-0.065
4893,-0.060
4894,-0.060
4895,-0.060
4896,-0.060
4897,-0.065
4898,-0.070
4899,-0.070
4900,-0.070
4901,-0.070
4902,-0.065
4903,-0.065
4904,-0.060
4905,-0.060
4906,-0.060
4907,-0.065
4908,-0.065
4909,-0.070
4910,-0.070
4911,-0.065
4912,-0.060
4913,-0.055
4914,-0.045
4915,-0.030
4916,-0.020
4917,-0.015
4918,-0.010
4919,-0.015
4920,-0.020
4921,-0.030
4922,-0.040
4923,-0.050
4924,-0.050
4925,-0.050
4926,-0.045
4927,-0.035
4928,-0.020
4929,-0.005
4930,0.005
4931,0.010
4932,0.010
4933,0.005
4934,0.000
4935,-0.005
4936,-0.010
4937,-0.010
4938,-0.010
4939,-0.010
4940,-0.005
4941,-0.005
4942,-0.005
4943,-0.005
4944,-0.010
4945,-0.020
4946,-0.030
4947,-0.035
4948,-0.045
4949,-0.055
4950,-0.060
4951,-0.065
4952,-0.065
4953,-0.070
4954,-0.075
4955,-0.075
4956,-0.075
4957,-0.075
4958,-0.075
4959,-0.075
4960,-0.075
4961,-0.075
4962,-0.075
4963,-0.080
4964,-0.090
4965,-0.095
4966,-0.105
4967,-0.110
4968,-0.110
4969,-0.110
4970,-0.105
4971,-0.095
4972,-0.090
4973,-0.080
4974,-0.075
4975,-0.070
4976,-0.070
4977,-0.075
4978,-0.080
4979,-0.080
4980,-0.085
4981,-0.085
4982,-0.085
4983,-0.080
4984,-0.075
4985,-0.075
4986,-0.075
4987,-0.075
4988,-0.085
4989,-0.095
4990,-0.105
4991,-0.115
4992,-0.125
4993,-0.130
4994,-0.130
4995,-0.125
4996,-0.110
4997,-0.090
4998,-0.060
4999,-0.020
5000,0.025
5001,0.085
5002,0.155
5003,0.230
5004,0.310
5005,0.395
5006,0.475
5007,0.540
5008,0.590
5009,0.610
5010,0.600
5011,0.560
5012,0.485
5013,0.390
5014,0.280
5015,0.165
5016,0.055
5017,-0.035
5018,-0.110
5019,-0.155
5020,-0.175
5021,-0.175
5022,-0.165
5023,-0.140
5024,-0.120
5025,-0.100
5026,-0.085
5027,-0.075
5028,-0.070
5029,-0.070
5030,-0.070
5031,-0.075
5032,-0.075
5033,-0.070
5034,-0.065
5035,-0.060
5036,-0.055
5037,-0.050
5038,-0.045
5039,-0.035
5040,-0.035
5041,-0.030
5042,-0.030
5043,-0.030
5044,-0.035
5045,-0.035
5046,-0.040
5047,-0.045
5048,-0.050
5049,-0.050
5050,-0.050
5051,-0.050
5052,-0.045
5053,-0.040
5054,-0.035
5055,-0.030
5056,-0.025
5057,-0.020
5058,-0.020
5059,-0.015
5060,-0.010
5061,-0.010
5062,-0.010
5063,-0.010
5064,-0.010
5065,-0.010
5066,-0.015
5067,-0.015
5068,-0.010
5069,-0.010
5070,-0.005
5071,0.000
5072,0.005
5073,0.010
5074,0.015
5075,0.015
5076,0.015
5077,0.015
5078,0.010
5079,0.005
5080,0.005
5081,0.000
5082,0.005
5083,0.010
5084,0.015
5085,0.025
5086,0.040
5087,0.050
5088,0.060
5089,0.065
5090,0.070
5091,0.075
5092,0.075
5093,0.075
5094,0.075
5095,0.080
5096,0.080
5097,0.090
5098,0.095
5099,0.105
5100,0.115
5101,0.125
5102,0.135
5103,0.140
5104,0.150
5105,0.160
5106,0.170
5107,0.175
5108,0.185
5109,0.190
5110,0.195
5111,0.200
5112,0.205
5113,0.205
5114,0.205
5115,0.210
5116,0.210
5117,0.210
5118,0.215
5119,0.220
5120,0.230
5121,0.235
5122,0.240
5123,0.245
5124,0.250
5125,0.245
5126,0.240
5127,0.235
5128,0.220
5129,0.205
5130,0.195
5131,0.180
5132,0.170
5133,0.165
5134,0.160
5135,0.155
5136,0.155
5137,0.155
5138,0.150
5139,0.145
5140,0.135
5141,0.120
5142,0.105
5143,0.085
5144,0.070
5145,0.055
5146,0.040
5147,0.035
5148,0.030
5149,0.025
5150,0.025
5151,0.025
5152,0.025
5153,0.020
5154,0.015
5155,0.005
5156,-0.005
5157,-0.020
5158,-0.025
5159,-0.035
5160,-0.040
5161,-0.040
5162,-0.040
5163,-0.035
5164,-0.035
5165,-0.030
5166,-0.030
5167,-0.035
5168,-0.035
5169,-0.040
5170,-0.045
5171,-0.050
5172,-0.050
5173,-0.045
5174,-0.045
5175,-0.040
5176,-0.035
5177,-0.030
5178,-0.030
5179,-0.030
5180,-0.035
5181,-0.045
5182,-0.050
5183,-0.055
5184,-0.060
5185,-0.060
5186,-0.060
5187,-0.055
5188,-0.050
5189,-0.040
5190,-0.035
5191,-0.030
5192,-0.025
5193,-0.025
5194,-0.030
5195,-0.035
5196,-0.035
5197,-0.040
5198,-0.040
5199,-0.035
5200,-0.035
5201,-0.030
5202,-0.025
5203,-0.025
5204,-0.025
5205,-0.025
5206,-0.030
5207,-0.030
5208,-0.035
5209,-0.040
5210,-0.040
5211,-0.040
5212,-0.040
5213,-0.040
5214,-0.035
5215,-0.035
5216,-0.035
5217,-0.035
5218,-0.035
5219,-0.040
5220,-0.040
5221,-0.045
5222,-0.045
5223,-0.045
5224,-0.040
5225,-0.040
5226,-0.035
5227,-0.035
5228,-0.035
5229,-0.035
5230,-0.035
5231,-0.040
5232,-0.045
5233,-0.055
5234,-0.060
5235,-0.065
5236,-0.065
5237,-0.065
5238,-0.060
5239,-0.055
5240,-0.050
5241,-0.045
5242,-0.040
5243,-0.040
5244,-0.040
5245,-0.045
5246,-0.050
5247,-0.055
5248,-0.065
5249,-0.070
5250,-0.070
5251,-0.070
5252,-0.065
5253,-0.060
5254,-0.055
5255,-0.055
5256,-0.055
5257,-0.055
5258,-0.060
5259,-0.065
5260,-0.070
5261,-0.080
5262,-0.080
5263,-0.080
5264,-0.080
5265,-0.075
5266,-0.070
5267,-0.065
5268,-0.065
5269,-0.060
5270,-0.060
5271,-0.065
5272,-0.065
5273,-0.070
5274,-0.070
5275,-0.070
5276,-0.070
5277,-0.065
5278,-0.065
5279,-0.060
5280,-0.060
5281,-0.060
5282,-0.065
5283,-0.070
5284,-0.075
5285,-0.080
5286,-0.080
5287,-0.080
5288,-0.080
5289,-0.080
5290,-0.075
5291,-0.070
5292,-0.070
5293,-0.070
5294,-0.070
5295,-0.070
5296,-0.070
5297,-0.070
5298,-0.070
5299,-0.065
5300,-0.065
5301,-0.060
5302,-0.055
5303,-0.055
5304,-0.050
5305,-0.050
5306,-0.050
5307,-0.050
5308,-0.050
5309,-0.050
5310,-0.045
5311,-0.040
5312,-0.035
5313,-0.030
5314,-0.020
5315,-0.015
5316,-0.005
5317,0.005
5318,0.010
5319,0.015
5320,0.015
5321,0.015
5322,0.015
5323,0.010
5324,0.000
5325,-0.005
5326,-0.015
5327,-0.020
5328,-0.025
5329,-0.025
5330,-0.020
5331,-0.015
5332,-0.010
5333,-0.010
5334,-0.010
5335,-0.010
5336,-0.020
5337,-0.030
5338,-0.045
5339,-0.060
5340,-0.070
5341,-0.075
5342,-0.080
5343,-0.075
5344,-0.070
5345,-0.060
5346,-0.055
5347,-0.050
5348,-0.050
5349,-0.055
5350,-0.065
5351,-0.075
5352,-0.080
5353,-0.085
5354,-0.090
5355,-0.085
5356,-0.075
5357,-0.065
5358,-0.055
5359,-0.050
5360,-0.045
5361,-0.050
5362,-0.055
5363,-0.065
5364,-0.080
5365,-0.095
5366,-0.105
5367,-0.110
5368,-0.115
5369,-0.115
5370,-0.110
5371,-0.105
5372,-0.100
5373,-0.100
5374,-0.095
5375,-0.095
5376,-0.095
5377,-0.095
5378,-0.095
5379,-0.095
5380,-0.090
5381,-0.090
5382,-0.090
5383,-0.090
5384,-0.095
5385,-0.095
5386,-0.095
5387,-0.090
5388,-0.080
5389,-0.055
5390,-0.020
5391,0.035
5392,0.100
5393,0.180
5394,0.270
5395,0.360
5396,0.445
5397,0.520
5398,0.570
5399,0.595
5400,0.595
5401,0.560
5402,0.500
5403,0.415
5404,0.310
5405,0.200
5406,0.090
5407,-0.010
5408,-0.090
5409,-0.155
5410,-0.200
5411,-0.220
5412,-0.220
5413,-0.210
5414,-0.190
5415,-0.160
5416,-0.135
5417,-0.105
5418,-0.085
5419,-0.065
5420,-0.050
5421,-0.040
5422,-0.035
5423,-0.035
5424,-0.035
5425,-0.040
5426,-0.045
5427,-0.050
5428,-0.055
5429,-0.060
5430,-0.065
5431,-0.065
5432,-0.065
5433,-0.060
5434,-0.055
5435,-0.050
5436,-0.045
5437,-0.040
5438,-0.035
5439,-0.030
5440,-0.030
5441,-0.030
5442,-0.035
5443,-0.035
5444,-0.040
5445,-0.040
5446,-0.045
5447,-0.045
5448,-0.050
5449,-0.045
5450,-0.045
5451,-0.040
5452,-0.030
5453,-0.020
5454,-0.010
5455,-0.005
5456,0.005
5457,0.010
5458,0.010
5459,0.010
5460,0.005
5461,0.005
5462,0.000
5463,-0.005
5464,-0.005
5465,-0.005
5466,-0.005
5467,0.000
5468,0.005
5469,0.010
5470,0.015
5471,0.020
5472,0.020
5473,0.025
5474,0.030
5475,0.035
5476,0.035
5477,0.040
5478,0.040
5479,0.045
5480,0.045
5481,0.050
5482,0.055
5483,0.060
5484,0.065
5485,0.070
5486,0.075
5487,0.080
5488,0.090
5489,0.095
5490,0.105
5491,0.115
5492,0.125
5493,0.135
5494,0.140
5495,0.150
5496,0.160
5497,0.170
5498,0.175
5499,0.180
5500,0.185
5501,0.190
5502,0.200
5503,0.205
5504,0.210
5505,0.210
5506,0.215
5507,0.215
5508,0.215
5509,0.215
5510,0.215
5511,0.215
5512,0.215
5513,0.215
5514,0.220
5515,0.220
5516,0.220
5517,0.220
5518,0.215
5519,0.210
5520,0.200
5521,0.195
5522,0.180
5523,0.170
5524,0.160
5525,0.155
5526,0.145
5527,0.140
5528,0.130
5529,0.120
5530,0.110
5531,0.105
5532,0.095
5533,0.085
5534,0.075
5535,0.065
5536,0.055
5537,0.045
5538,0.035
5539,0.025
5540,0.010
5541,-0.005
5542,-0.015
5543,-0.030
5544,-0.035
5545,-0.045
5546,-0.045
5547,-0.045
5548,-0.040
5549,-0.040
5550,-0.035
5551,-0.035
5552,-0.040
5553,-0.045
5554,-0.055
5555,-0.060
5556,-0.070
5557,-0.075
5558,-0.075
5559,-0.070
5560,-0.065
5561,-0.055
5562,-0.050
5563,-0.045
5564,-0.040
5565,-0.040
5566,-0.040
5567,-0.040
5568,-0.045
5569,-0.045
5570,-0.045
5571,-0.040
5572,-0.040
5573,-0.035
5574,-0.035
5575,-0.030
5576,-0.030
5577,-0.035
5578,-0.040
5579,-0.045
5580,-0.050
5581,-0.055
5582,-0.060
5583,-0.065
5584,-0.070
5585,-0.070
5586,-0.065
5587,-0.060
5588,-0.055
5589,-0.045
5590,-0.035
5591,-0.025
5592,-0.020
5593,-0.015
5594,-0.015
5595,-0.015
5596,-0.015
5597,-0.020
5598,-0.025
5599,-0.025
5600,-0.030
5601,-0.030
5602,-0.035
5603,-0.035
5604,-0.035
5605,-0.040
5606,-0.040
5607,-0.040
5608,-0.045
5609,-0.045
5610,-0.045
5611,-0.045
5612,-0.045
5613,-0.045
5614,-0.045
5615,-0.045
5616,-0.045
5617,-0.045
5618,-0.045
5619,-0.040
5620,-0.035
5621,-0.035
5622,-0.030
5623,-0.030
5624,-0.030
5625,-0.030
5626,-0.035
5627,-0.040
5628,-0.045
5629,-0.050
5630,-0.050
5631,-0.050
5632,-0.050
5633,-0.050
5634,-0.045
5635,-0.045
5636,-0.045
5637,-0.045
5638,-0.050
5639,-0.055
5640,-0.060
5641,-0.065
5642,-0.070
5643,-0.080
5644,-0.080
5645,-0.085
5646,-0.085
5647,-0.080
5648,-0.080
5649,-0.070
5650,-0.065
5651,-0.060
5652,-0.055
5653,-0.050
5654,-0.050
5655,-0.050
5656,-0.050
5657,-0.055
5658,-0.055
5659,-0.060
5660,-0.060
5661,-0.060
5662,-0.065
5663,-0.065
5664,-0.065
5665,-0.065
5666,-0.070
5667,-0.070
5668,-0.070
5669,-0.065
5670,-0.060
5671,-0.050
5672,-0.040
5673,-0.030
5674,-0.020
5675,-0.015
5676,-0.015
5677,-0.015
5678,-0.020
5679,-0.025
5680,-0.035
5681,-0.045
5682,-0.050
5683,-0.050
5684,-0.050
5685,-0.045
5686,-0.035
5687,-0.025
5688,-0.015
5689,-0.010
5690,0.000
5691,0.000
5692,0.005
5693,0.000
5694,0.000
5695,0.000
5696,-0.005
5697,-0.005
5698,-0.005
5699,-0.005
5700,-0.005
5701,-0.005
5702,-0.005
5703,-0.010
5704,-0.015
5705,-0.025
5706,-0.035
5707,-0.040
5708,-0.045
5709,-0.050
5710,-0.050
5711,-0.050
5712,-0.045
5713,-0.045
5714,-0.045
5715,-0.045
5716,-0.050
5717,-0.060
5718,-0.065
5719,-0.075
5720,-0.080
5721,-0.085
5722,-0.090
5723,-0.090
5724,-0.085
5725,-0.080
5726,-0.075
5727,-0.075
5728,-0.070
5729,-0.070
5730,-0.075
5731,-0.080
5732,-0.085
5733,-0.090
5734,-0.095
5735,-0.095
5736,-0.100
5737,-0.100
5738,-0.095
5739,-0.095
5740,-0.090
5741,-0.085
5742,-0.080
5743,-0.075
5744,-0.075
5745,-0.075
5746,-0.075
5747,-0.080
5748,-0.085
5749,-0.090
5750,-0.095
5751,-0.100
5752,-0.105
5753,-0.110
5754,-0.110
5755,-0.110
5756,-0.110
5757,-0.105
5758,-0.100
5759,-0.095
5760,-0.085
5761,-0.065
5762,-0.040
5763,0.000
5764,0.050
5765,0.110
5766,0.185
5767,0.265
5768,0.355
5769,0.440
5770,0.510
5771,0.565
5772,0.595
5773,0.595
5774,0.555
5775,0.490
5776,0.400
5777,0.290
5778,0.180
5779,0.070
5780,-0.020
5781,-0.095
5782,-0.145
5783,-0.170
5784,-0.175
5785,-0.170
5786,-0.150
5787,-0.130
5788,-0.110
5789,-0.090
5790,-0.075
5791,-0.065
5792,-0.060
5793,-0.060
5794,-0.060
5795,-0.060
5796,-0.065
5797,-0.065
5798,-0.070
5799,-0.075
5800,-0.075
5801,-0.070
5802,-0.065
5803,-0.060
5804,-0.050
5805,-0.040
5806,-0.030
5807,-0.025
5808,-0.025
5809,-0.020
5810,-0.025
5811,-0.025
5812,-0.030
5813,-0.035
5814,-0.035
5815,-0.040
5816,-0.040
5817,-0.045
5818,-0.045
5819,-0.045
5820,-0.045
5821,-0.045
5822,-0.040
5823,-0.035
5824,-0.025
5825,-0.015
5826,-0.010
5827,0.000
5828,0.000
5829,0.000
5830,-0.005
5831,-0.010
5832,-0.015
5833,-0.020
5834,-0.020
5835,-0.020
5836,-0.015
5837,-0.005
5838,0.005
5839,0.015
5840,0.020
5841,0.020
5842,0.025
5843,0.020
5844,0.020
5845,0.020
5846,0.020
5847,0.025
5848,0.030
5849,0.035
5850,0.040
5851,0.045
5852,0.050
5853,0.050
5854,0.055
5855,0.055
5856,0.055
5857,0.060
5858,0.065
5859,0.075
5860,0.085
5861,0.095
5862,0.105
5863,0.115
5864,0.120
5865,0.130
5866,0.135
5867,0.140
5868,0.145
5869,0.150
5870,0.150
5871,0.155
5872,0.160
5873,0.165
5874,0.170
5875,0.175
5876,0.180
5877,0.190
5878,0.195
5879,0.205
5880,0.210
5881,0.215
5882,0.220
5883,0.220
5884,0.220
5885,0.215
5886,0.210
5887,0.210
5888,0.205
5889,0.205
5890,0.205
5891,0.205
5892,0.200
5893,0.200
5894,0.190
5895,0.180
5896,0.165
5897,0.150
5898,0.135
5899,0.120
5900,0.105
5901,0.095
5902,0.085
5903,0.075
5904,0.070
5905,0.060
5906,0.050
5907,0.040
5908,0.030
5909,0.020
5910,0.015
5911,0.010
5912,0.005
5913,0.005
5914,0.005
5915,0.005
5916,0.005
5917,0.000
5918,-0.010
5919,-0.020
5920,-0.030
5921,-0.040
5922,-0.045
5923,-0.050
5924,-0.050
5925,-0.050
5926,-0.045
5927,-0.040
5928,-0.035
5929,-0.035
5930,-0.030
5931,-0.030
5932,-0.035
5933,-0.040
5934,-0.045
5935,-0.050
5936,-0.055
5937,-0.055
5938,-0.055
5939,-0.050
5940,-0.050
5941,-0.045
5942,-0.040
5943,-0.035
5944,-0.035
5945,-0.035
5946,-0.035
5947,-0.035
5948,-0.035
5949,-0.040
5950,-0.040
5951,-0.045
5952,-0.045
5953,-0.045
5954,-0.045
5955,-0.040
5956,-0.035
5957,-0.030
5958,-0.030
5959,-0.025
5960,-0.025
5961,-0.030
5962,-0.040
5963,-0.050
5964,-0.060
5965,-0.070
5966,-0.075
5967,-0.075
5968,-0.070
5969,-0.060
5970,-0.050
5971,-0.040
5972,-0.030
5973,-0.025
5974,-0.020
5975,-0.025
5976,-0.030
5977,-0.035
5978,-0.040
5979,-0.045
5980,-0.045
5981,-0.045
5982,-0.040
5983,-0.035
5984,-0.030
5985,-0.025
5986,-0.030
5987,-0.030
5988,-0.035
5989,-0.040
5990,-0.045
5991,-0.045
5992,-0.045
5993,-0.040
5994,-0.040
5995,-0.035
5996,-0.030
5997,-0.030
5998,-0.035
5999,-0.035
6000,-0.045
6001,-0.050
6002,-0.055
6003,-0.060
6004,-0.065
6005,-0.070
6006,-0.070
6007,-0.070
6008,-0.065
6009,-0.065
6010,-0.065
6011,-0.060
6012,-0.060
6013,-0.060
6014,-0.060
6015,-0.060
6016,-0.060
6017,-0.060
6018,-0.055
6019,-0.055
6020,-0.060
6021,-0.060
6022,-0.065
6023,-0.065
6024,-0.070
6025,-0.075
6026,-0.075
6027,-0.075
6028,-0.070
6029,-0.065
6030,-0.055
6031,-0.050
6032,-0.045
6033,-0.040
6034,-0.040
6035,-0.035
6036,-0.035
6037,-0.035
6038,-0.035
6039,-0.035
6040,-0.035
6041,-0.030
6042,-0.030
6043,-0.030
6044,-0.035
6045,-0.040
6046,-0.040
6047,-0.045
6048,-0.045
6049,-0.040
6050,-0.035
6051,-0.025
6052,-0.015
6053,-0.010
6054,0.000
6055,0.005
6056,0.005
6057,0.005
6058,0.000
6059,0.000
6060,-0.005
6061,-0.010
6062,-0.015
6063,-0.020
6064,-0.025
6065,-0.030
6066,-0.040
6067,-0.045
6068,-0.055
6069,-0.060
6070,-0.065
6071,-0.070
6072,-0.070
6073,-0.070
6074,-0.070
6075,-0.070
6076,-0.070
6077,-0.075
6078,-0.075
6079,-0.075
6080,-0.080
6081,-0.080
6082,-0.080
6083,-0.080
6084,-0.075
6085,-0.075
6086,-0.070
6087,-0.070
6088,-0.070
6089,-0.075
6090,-0.080
6091,-0.085
6092,-0.095
6093,-0.100
6094,-0.100
6095,-0.105
6096,-0.100
6097,-0.100
6098,-0.090
6099,-0.085
6100,-0.080
6101,-0.075
6102,-0.070
6103,-0.070
6104,-0.075
6105,-0.085
6106,-0.095
6107,-0.105
6108,-0.115
6109,-0.120
6110,-0.120
6111,-0.120
6112,-0.115
6113,-0.105
6114,-0.100
6115,-0.095
6116,-0.090
6117,-0.080
6118,-0.070
6119,-0.055
6120,-0.025
6121,0.020
6122,0.080
6123,0.155
6124,0.245
6125,0.340
6126,0.435
6127,0.515
6128,0.580
6129,0.620
6130,0.625
6131,0.600
6132,0.545
6133,0.470
6134,0.370
6135,0.265
6136,0.155
6137,0.055
6138,-0.030
6139,-0.100
6140,-0.155
6141,-0.185
6142,-0.195
6143,-0.190
6144,-0.170
6145,-0.145
6146,-0.115
6147,-0.085
6148,-0.060
6149,-0.040
6150,-0.030
6151,-0.030
6152,-0.040
6153,-0.055
6154,-0.070
6155,-0.085
6156,-0.095
6157,-0.095
6158,-0.095
6159,-0.085
6160,-0.075
6161,-0.065
6162,-0.055
6163,-0.050
6164,-0.050
6165,-0.050
6166,-0.055
6167,-0.055
6168,-0.055
6169,-0.055
6170,-0.045
6171,-0.040
6172,-0.030
6173,-0.020
6174,-0.020
6175,-0.020
6176,-0.025
6177,-0.030
6178,-0.035
6179,-0.040
6180,-0.045
6181,-0.040
6182,-0.035
6183,-0.030
6184,-0.020
6185,-0.015
6186,-0.010
6187,-0.005
6188,-0.005
6189,-0.005
6190,-0.005
6191,-0.005
6192,-0.005
6193,-0.005
6194,-0.005
6195,-0.005
6196,0.000
6197,0.000
6198,0.005
6199,0.010
6200,0.015
6201,0.025
6202,0.030
6203,0.035
6204,0.040
6205,0.045
6206,0.045
6207,0.045
6208,0.045
6209,0.045
6210,0.045
6211,0.045
6212,0.050
6213,0.050
6214,0.055
6215,0.065
6216,0.070
6217,0.080
6218,0.090
6219,0.100
6220,0.110
6221,0.125
6222,0.135
6223,0.145
6224,0.150
6225,0.150
6226,0.150
6227,0.150
6228,0.145
6229,0.145
6230,0.150
6231,0.160
6232,0.170
6233,0.190
6234,0.205
6235,0.215
6236,0.225
6237,0.230
6238,0.230
6239,0.220
6240,0.215
6241,0.205
6242,0.200
6243,0.195
6244,0.200
6245,0.205
6246,0.210
6247,0.215
6248,0.215
6249,0.210
6250,0.205
6251,0.190
6252,0.175
6253,0.155
6254,0.140
6255,0.125
6256,0.115
6257,0.105
6258,0.100
6259,0.095
6260,0.095
6261,0.085
6262,0.080
6263,0.065
6264,0.055
6265,0.040
6266,0.025
6267,0.010
6268,0.000
6269,-0.010
6270,-0.015
6271,-0.015
6272,-0.015
6273,-0.015
6274,-0.015
6275,-0.020
6276,-0.025
6277,-0.030
6278,-0.035
6279,-0.045
6280,-0.055
6281,-0.060
6282,-0.065
6283,-0.065
6284,-0.060
6285,-0.055
6286,-0.045
6287,-0.040
6288,-0.040
6289,-0.040
6290,-0.040
6291,-0.050
6292,-0.060
6293,-0.065
6294,-0.075
6295,-0.075
6296,-0.075
6297,-0.070
6298,-0.060
6299,-0.050
6300,-0.040
6301,-0.030
6302,-0.030
6303,-0.030
6304,-0.035
6305,-0.045
6306,-0.050
6307,-0.060
6308,-0.065
6309,-0.070
6310,-0.070
6311,-0.065
6312,-0.060
6313,-0.055
6314,-0.050
6315,-0.045
6316,-0.040
6317,-0.040
6318,-0.035
6319,-0.040
6320,-0.040
6321,-0.045
6322,-0.045
6323,-0.050
6324,-0.055
6325,-0.060
6326,-0.060
6327,-0.060
6328,-0.060
6329,-0.055
6330,-0.055
6331,-0.050
6332,-0.045
6333,-0.040
6334,-0.035
6335,-0.030
6336,-0.025
6337,-0.025
6338,-0.020
6339,-0.025
6340,-0.025
6341,-0.030
6342,-0.040
6343,-0.045
6344,-0.050
6345,-0.055
6346,-0.055
6347,-0.050
6348,-0.050
6349,-0.045
6350,-0.040
6351,-0.040
6352,-0.040
6353,-0.045
6354,-0.050
6355,-0.050
6356,-0.055
6357,-0.050
6358,-0.050
6359,-0.045
6360,-0.040
6361,-0.040
6362,-0.040
6363,-0.045
6364,-0.055
6365,-0.060
6366,-0.070
6367,-0.075
6368,-0.075
6369,-0.070
6370,-0.065
6371,-0.055
6372,-0.050
6373,-0.045
6374,-0.045
6375,-0.050
6376,-0.060
6377,-0.070
6378,-0.075
6379,-0.080
6380,-0.080
6381,-0.080
6382,-0.075
6383,-0.065
6384,-0.060
6385,-0.055
6386,-0.050
6387,-0.050
6388,-0.050
6389,-0.050
6390,-0.045
6391,-0.045
6392,-0.040
6393,-0.035
6394,-0.035
6395,-0.035
6396,-0.035
6397,-0.045
6398,-0.050
6399,-0.055
6400,-0.060
6401,-0.065
6402,-0.060
6403,-0.055
6404,-0.050
6405,-0.040
6406,-0.035
6407,-0.030
6408,-0.025
6409,-0.020
6410,-0.020
6411,-0.020
6412,-0.020
6413,-0.015
6414,-0.010
6415,-0.005
6416,-0.005
6417,-0.005
6418,-0.010
6419,-0.015
6420,-0.025
6421,-0.035
6422,-0.040
6423,-0.050
6424,-0.055
6425,-0.055
6426,-0.055
6427,-0.055
6428,-0.055
6429,-0.060
6430,-0.060
6431,-0.065
6432,-0.070
6433,-0.070
6434,-0.070
6435,-0.070
6436,-0.070
6437,-0.065
6438,-0.060
6439,-0.060
6440,-0.060
6441,-0.065
6442,-0.070
6443,-0.075
6444,-0.085
6445,-0.090
6446,-0.090
6447,-0.090
6448,-0.090
6449,-0.085
6450,-0.080
6451,-0.080
6452,-0.085
6453,-0.090
6454,-0.095
6455,-0.100
6456,-0.105
6457,-0.105
6458,-0.100
6459,-0.095
6460,-0.090
6461,-0.080
6462,-0.075
6463,-0.070
6464,-0.070
6465,-0.070
6466,-0.070
6467,-0.075
6468,-0.080
6469,-0.085
6470,-0.090
6471,-0.095
6472,-0.095
6473,-0.100
6474,-0.100
6475,-0.105
6476,-0.105
6477,-0.105
6478,-0.100
6479,-0.085
6480,-0.065
6481,-0.035
6482,0.005
6483,0.060
6484,0.125
6485,0.200
6486,0.285
6487,0.370
6488,0.450
6489,0.525
6490,0.580
6491,0.610
6492,0.610
6493,0.575
6494,0.515
6495,0.425
6496,0.320
6497,0.200
6498,0.090
6499,-0.015
6500,-0.095
6501,-0.150
6502,-0.180
6503,-0.185
6504,-0.170
6505,-0.145
6506,-0.115
6507,-0.090
6508,-0.065
6509,-0.055
6510,-0.050
6511,-0.050
6512,-0.060
6513,-0.065
6514,-0.070
6515,-0.070
6516,-0.065
6517,-0.055
6518,-0.045
6519,-0.035
6520,-0.025
6521,-0.020
6522,-0.020
6523,-0.025
6524,-0.030
6525,-0.035
6526,-0.045
6527,-0.050
6528,-0.050
6529,-0.050
6530,-0.050
6531,-0.045
6532,-0.040
6533,-0.035
6534,-0.035
6535,-0.030
6536,-0.030
6537,-0.030
6538,-0.035
6539,-0.030
6540,-0.030
6541,-0.025
6542,-0.020
6543,-0.015
6544,-0.005
6545,-0.005
6546,-0.005
6547,-0.005
6548,-0.015
6549,-0.020
6550,-0.025
6551,-0.030
6552,-0.030
6553,-0.025
6554,-0.015
6555,-0.005
6556,0.005
6557,0.015
6558,0.025
6559,0.025
6560,0.020
6561,0.015
6562,0.005
6563,0.000
6564,0.000
6565,0.000
6566,0.010
6567,0.020
6568,0.035
6569,0.050
6570,0.060
6571,0.065
6572,0.070
6573,0.070
6574,0.065
6575,0.065
6576,0.060
6577,0.060
6578,0.065
6579,0.070
6580,0.075
6581,0.085
6582,0.095
6583,0.100
6584,0.110
6585,0.115
6586,0.125
6587,0.130
6588,0.140
6589,0.150
6590,0.165
6591,0.175
6592,0.185
6593,0.190
6594,0.195
6595,0.200
6596,0.200
6597,0.200
6598,0.200
6599,0.195
6600,0.195
6601,0.200
6602,0.200
6603,0.205
6604,0.205
6605,0.205
6606,0.205
6607,0.205
6608,0.200
6609,0.195
6610,0.190
6611,0.185
6612,0.175
6613,0.170
6614,0.160
6615,0.155
6616,0.140
6617,0.130
6618,0.115
6619,0.100
6620,0.085
6621,0.075
6622,0.065
6623,0.060
6624,0.055
6625,0.050
6626,0.045
6627,0.040
6628,0.030
6629,0.020
6630,0.010
6631,0.000
6632,-0.010
6633,-0.015
6634,-0.020
6635,-0.020
6636,-0.020
6637,-0.020
6638,-0.020
6639,-0.025
6640,-0.030
6641,-0.035
6642,-0.040
6643,-0.045
6644,-0.050
6645,-0.050
6646,-0.050
6647,-0.050
6648,-0.045
6649,-0.040
6650,-0.040
6651,-0.040
6652,-0.045
6653,-0.045
6654,-0.050
6655,-0.050
6656,-0.050
6657,-0.050
6658,-0.050
6659,-0.050
6660,-0.050
6661,-0.050
6662,-0.050
6663,-0.050
6664,-0.050
6665,-0.050
6666,-0.050
6667,-0.045
6668,-0.040
6669,-0.035
6670,-0.030
6671,-0.030
6672,-0.025
6673,-0.030
6674,-0.035
6675,-0.045
6676,-0.050
6677,-0.055
6678,-0.060
6679,-0.060
6680,-0.055
6681,-0.050
6682,-0.045
6683,-0.040
6684,-0.035
6685,-0.035
6686,-0.040
6687,-0.045
6688,-0.050
6689,-0.055
6690,-0.055
6691,-0.055
6692,-0.050
6693,-0.040
6694,-0.030
6695,-0.015
6696,-0.010
6697,0.000
6698,0.000
6699,0.000
6700,-0.010
6701,-0.015
6702,-0.030
6703,-0.040
6704,-0.045
6705,-0.055
6706,-0.055
6707,-0.055
6708,-0.055
6709,-0.050
6710,-0.045
6711,-0.040
6712,-0.040
6713,-0.045
6714,-0.050
6715,-0.055
6716,-0.065
6717,-0.070
6718,-0.070
6719,-0.070
6720,-0.065
6721,-0.055
6722,-0.050
6723,-0.045
6724,-0.045
6725,-0.045
6726,-0.050
6727,-0.055
6728,-0.065
6729,-0.070
6730,-0.075
6731,-0.070
6732,-0.065
6733,-0.055
6734,-0.045
6735,-0.040
6736,-0.030
6737,-0.030
6738,-0.030
6739,-0.040
6740,-0.045
6741,-0.055
6742,-0.065
6743,-0.070
6744,-0.070
6745,-0.065
6746,-0.060
6747,-0.055
6748,-0.050
6749,-0.045
6750,-0.045
6751,-0.050
6752,-0.055
6753,-0.065
6754,-0.075
6755,-0.085
6756,-0.090
6757,-0.095
6758,-0.095
6759,-0.090
6760,-0.080
6761,-0.070
6762,-0.060
6763,-0.055
6764,-0.050
6765,-0.045
6766,-0.045
6767,-0.050
6768,-0.055
6769,-0.055
6770,-0.055
6771,-0.055
6772,-0.050
6773,-0.045
6774,-0.035
6775,-0.030
6776,-0.025
6777,-0.025
6778,-0.025
6779,-0.025
6780,-0.030
6781,-0.030
6782,-0.030
6783,-0.025
6784,-0.015
6785,-0.005
6786,0.005
6787,0.010
6788,0.015
6789,0.015
6790,0.010
6791,0.000
6792,-0.005
6793,-0.010
6794,-0.015
6795,-0.010
6796,-0.005
6797,0.005
6798,0.015
6799,0.020
6800,0.020
6801,0.010
6802,-0.005
6803,-0.025
6804,-0.045
6805,-0.065
6806,-0.075
6807,-0.085
6808,-0.085
6809,-0.080
6810,-0.075
6811,-0.065
6812,-0.060
6813,-0.060
6814,-0.065
6815,-0.070
6816,-0.075
6817,-0.085
6818,-0.085
6819,-0.085
6820,-0.075
6821,-0.070
6822,-0.060
6823,-0.050
6824,-0.045
6825,-0.045
6826,-0.055
6827,-0.065
6828,-0.075
6829,-0.090
6830,-0.100
6831,-0.105
6832,-0.100
6833,-0.100
6834,-0.090
6835,-0.085
6836,-0.075
6837,-0.075
6838,-0.075
6839,-0.075
6840,-0.080
6841,-0.085
6842,-0.090
6843,-0.095
6844,-0.095
6845,-0.095
6846,-0.090
6847,-0.090
6848,-0.090
6849,-0.090
6850,-0.095
6851,-0.095
6852,-0.100
6853,-0.105
6854,-0.110
6855,-0.110
6856,-0.105
6857,-0.095
6858,-0.080
6859,-0.055
6860,-0.015
6861,0.030
6862,0.090
6863,0.165
6864,0.245
6865,0.330
6866,0.415
6867,0.495
6868,0.555
6869,0.595
6870,0.610
6871,0.590
6872,0.545
6873,0.475
6874,0.380
6875,0.275
6876,0.165
6877,0.065
6878,-0.025
6879,-0.100
6880,-0.150
6881,-0.175
6882,-0.180
6883,-0.170
6884,-0.145
6885,-0.120
6886,-0.095
6887,-0.070
6888,-0.055
6889,-0.045
6890,-0.040
6891,-0.040
6892,-0.040
6893,-0.045
6894,-0.045
6895,-0.045
6896,-0.050
6897,-0.050
6898,-0.050
6899,-0.055
6900,-0.060
6901,-0.065
6902,-0.070
6903,-0.070
6904,-0.070
6905,-0.065
6906,-0.060
6907,-0.055
6908,-0.045
6909,-0.040
6910,-0.035
6911,-0.030
6912,-0.030
6913,-0.030
6914,-0.035
6915,-0.030
6916,-0.025
6917,-0.020
6918,-0.010
6919,0.000
6920,0.005
6921,0.010
6922,0.010
6923,0.010
6924,0.000
6925,-0.010
6926,-0.015
6927,-0.025
6928,-0.025
6929,-0.025
6930,-0.015
6931,-0.005
6932,0.005
6933,0.015
6934,0.020
6935,0.025
6936,0.020
6937,0.015
6938,0.010
6939,0.005
6940,0.005
6941,0.005
6942,0.005
6943,0.015
6944,0.020
6945,0.030
6946,0.040
6947,0.050
6948,0.055
6949,0.060
6950,0.060
6951,0.060
6952,0.060
6953,0.060
6954,0.065
6955,0.070
6956,0.080
6957,0.090
6958,0.100
6959,0.110
6960,0.120
6961,0.130
6962,0.135
6963,0.140
6964,0.140
6965,0.140
6966,0.140
6967,0.140
6968,0.140
6969,0.145
6970,0.150
6971,0.160
6972,0.170
6973,0.180
6974,0.195
6975,0.205
6976,0.210
6977,0.215
6978,0.220
6979,0.215
6980,0.215
6981,0.210
6982,0.205
6983,0.200
6984,0.195
6985,0.195
6986,0.195
6987,0.195
6988,0.190
6989,0.190
6990,0.185
6991,0.180
6992,0.175
6993,0.165
6994,0.155
6995,0.150
6996,0.140
6997,0.135
6998,0.125
6999,0.115
7000,0.110
7001,0.095
7002,0.085
7003,0.070
7004,0.055
7005,0.040
7006,0.030
7007,0.025
7008,0.015
7009,0.015
7010,0.010
7011,0.005
7012,0.000
7013,-0.010
7014,-0.020
7015,-0.030
7016,-0.040
7017,-0.050
7018,-0.055
7019,-0.055
7020,-0.050
7021,-0.045
7022,-0.040
7023,-0.035
7024,-0.035
7025,-0.035
7026,-0.040
7027,-0.040
7028,-0.040
7029,-0.040
7030,-0.040
7031,-0.035
7032,-0.035
7033,-0.035
7034,-0.040
7035,-0.045
7036,-0.050
7037,-0.055
7038,-0.055
7039,-0.055
7040,-0.045
7041,-0.040
7042,-0.030
7043,-0.020
7044,-0.015
7045,-0.015
7046,-0.020
7047,-0.030
7048,-0.040
7049,-0.055
7050,-0.060
7051,-0.065
7052,-0.065
7053,-0.055
7054,-0.050
7055,-0.040
7056,-0.030
7057,-0.020
7058,-0.020
7059,-0.020
7060,-0.020
7061,-0.025
7062,-0.025
7063,-0.030
7064,-0.030
7065,-0.030
7066,-0.030
7067,-0.030
7068,-0.035
7069,-0.035
7070,-0.035
7071,-0.035
7072,-0.035
7073,-0.030
7074,-0.030
7075,-0.025
7076,-0.025
7077,-0.020
7078,-0.020
7079,-0.020
7080,-0.025
7081,-0.025
7082,-0.025
7083,-0.025
7084,-0.025
7085,-0.025
7086,-0.025
7087,-0.025
7088,-0.030
7089,-0.035
7090,-0.045
7091,-0.050
7092,-0.055
7093,-0.060
7094,-0.060
7095,-0.060
7096,-0.055
7097,-0.050
7098,-0.045
7099,-0.040
7100,-0.035
7101,-0.035
7102,-0.035
7103,-0.040
7104,-0.045
7105,-0.050
7106,-0.055
7107,-0.060
7108,-0.060
7109,-0.055
7110,-0.050
7111,-0.045
7112,-0.040
7113,-0.035
7114,-0.030
7115,-0.030
7116,-0.030
7117,-0.030
7118,-0.035
7119,-0.040
7120,-0.040
7121,-0.045
7122,-0.045
7123,-0.045
7124,-0.045
7125,-0.050
7126,-0.050
7127,-0.055
7128,-0.055
7129,-0.060
7130,-0.065
7131,-0.065
7132,-0.060
7133,-0.060
7134,-0.055
7135,-0.050
7136,-0.045
7137,-0.040
7138,-0.035
7139,-0.035
7140,-0.040
7141,-0.040
7142,-0.045
7143,-0.050
7144,-0.055
7145,-0.055
7146,-0.055
7147,-0.055
7148,-0.055
7149,-0.055
7150,-0.055
7151,-0.055
7152,-0.055
7153,-0.055
7154,-0.055
7155,-0.055
7156,-0.055
7157,-0.055
7158,-0.055
7159,-0.055
7160,-0.055
7161,-0.050
7162,-0.055
7163,-0.055
7164,-0.055
7165,-0.060
7166,-0.065
7167,-0.065
7168,-0.070
7169,-0.075
7170,-0.080
7171,-0.080
7172,-0.075
7173,-0.075
7174,-0.070
7175,-0.065
7176,-0.060
7177,-0.055
7178,-0.055
7179,-0.055
7180,-0.055
7181,-0.050
7182,-0.050
7183,-0.045
7184,-0.040
7185,-0.040
7186,-0.030
7187,-0.030
7188,-0.025
7189,-0.020
7190,-0.020
7191,-0.020
7192,-0.025
7193,-0.025
7194,-0.025
7195,-0.025
7196,-0.020
7197,-0.020
7198,-0.015
7199,-0.010
7200,-0.005
7201,0.000
7202,0.005
7203,0.010
7204,0.010
7205,0.015
7206,0.015
7207,0.010
7208,0.010
7209,0.005
7210,0.000
7211,-0.010
7212,-0.015
7213,-0.020
7214,-0.030
7215,-0.035
7216,-0.040
7217,-0.045
7218,-0.050
7219,-0.050
7220,-0.050
7221,-0.050
7222,-0.050
7223,-0.050
7224,-0.050
7225,-0.055
7226,-0.055
7227,-0.060
7228,-0.060
7229,-0.060
7230,-0.060
7231,-0.060
7232,-0.060
7233,-0.060
7234,-0.060
7235,-0.065
7236,-0.070
7237,-0.075
7238,-0.085
7239,-0.090
7240,-0.090
7241,-0.090
7242,-0.085
7243,-0.080
7244,-0.070
7245,-0.060
7246,-0.055
7247,-0.055
7248,-0.060
7249,-0.065
7250,-0.075
7251,-0.080
7252,-0.085
7253,-0.085
7254,-0.085
7255,-0.080
7256,-0.075
7257,-0.070
7258,-0.070
7259,-0.070
7260,-0.075
7261,-0.085
7262,-0.095
7263,-0.100
7264,-0.105
7265,-0.100
7266,-0.100
7267,-0.090
7268,-0.085
7269,-0.080
7270,-0.070
7271,-0.060
7272,-0.045
7273,-0.025
7274,0.015
7275,0.065
7276,0.135
7277,0.220
7278,0.315
7279,0.410
7280,0.495
7281,0.570
7282,0.620
7283,0.635
7284,0.620
7285,0.570
7286,0.495
7287,0.400
7288,0.290
7289,0.180
7290,0.075
7291,-0.015
7292,-0.080
7293,-0.130
7294,-0.155
7295,-0.160
7296,-0.155
7297,-0.140
7298,-0.120
7299,-0.100
7300,-0.080
7301,-0.065
7302,-0.050
7303,-0.045
7304,-0.045
7305,-0.045
7306,-0.050
7307,-0.055
7308,-0.065
7309,-0.070
7310,-0.080
7311,-0.080
7312,-0.080
7313,-0.080
7314,-0.070
7315,-0.060
7316,-0.055
7317,-0.045
7318,-0.040
7319,-0.035
7320,-0.035
7321,-0.035
7322,-0.035
7323,-0.035
7324,-0.035
7325,-0.035
7326,-0.030
7327,-0.025
7328,-0.020
7329,-0.015
7330,-0.015
7331,-0.015
7332,-0.015
7333,-0.020
7334,-0.020
7335,-0.025
7336,-0.025
7337,-0.025
7338,-0.025
7339,-0.025
7340,-0.025
7341,-0.025
7342,-0.025
7343,-0.025
7344,-0.025
7345,-0.020
7346,-0.020
7347,-0.015
7348,-0.010
7349,0.000
7350,0.010
7351,0.015
7352,0.025
7353,0.030
7354,0.035
7355,0.035
7356,0.035
7357,0.035
7358,0.035
7359,0.035
7360,0.035
7361,0.040
7362,0.040
7363,0.045
7364,0.050
7365,0.055
7366,0.060
7367,0.065
7368,0.070
7369,0.075
7370,0.080
7371,0.085
7372,0.090
7373,0.090
7374,0.095
7375,0.095
7376,0.095
7377,0.100
7378,0.105
7379,0.115
7380,0.125
7381,0.135
7382,0.150
7383,0.165
7384,0.180
7385,0.190
7386,0.200
7387,0.205
7388,0.210
7389,0.210
7390,0.215
7391,0.215
7392,0.215
7393,0.220
7394,0.220
7395,0.220
7396,0.220
7397,0.215
7398,0.215
7399,0.215
7400,0.215
7401,0.210
7402,0.210
7403,0.210
7404,0.205
7405,0.195
7406,0.185
7407,0.170
7408,0.155
7409,0.135
7410,0.120
7411,0.105
7412,0.090
7413,0.080
7414,0.070
7415,0.065
7416,0.055
7417,0.050
7418,0.045
7419,0.035
7420,0.030
7421,0.025
7422,0.020
7423,0.015
7424,0.015
7425,0.010
7426,0.010
7427,0.005
7428,0.000
7429,-0.010
7430,-0.020
7431,-0.025
7432,-0.035
7433,-0.040
7434,-0.045
7435,-0.050
7436,-0.050
7437,-0.050
7438,-0.045
7439,-0.045
7440,-0.040
7441,-0.035
7442,-0.035
7443,-0.030
7444,-0.030
7445,-0.030
7446,-0.030
7447,-0.035
7448,-0.040
7449,-0.045
7450,-0.050
7451,-0.050
7452,-0.055
7453,-0.055
7454,-0.055
7455,-0.055
7456,-0.050
7457,-0.045
7458,-0.040
7459,-0.040
7460,-0.035
7461,-0.035
7462,-0.035
7463,-0.030
7464,-0.035
7465,-0.035
7466,-0.035
7467,-0.035
7468,-0.040
7469,-0.040
7470,-0.040
7471,-0.040
7472,-0.040
7473,-0.035
7474,-0.030
7475,-0.025
7476,-0.020
7477,-0.015
7478,-0.015
7479,-0.015
7480,-0.015
7481,-0.015
7482,-0.020
7483,-0.025
7484,-0.025
7485,-0.030
7486,-0.030
7487,-0.030
7488,-0.030
7489,-0.035
7490,-0.035
7491,-0.040
7492,-0.045
7493,-0.050
7494,-0.055
7495,-0.055
7496,-0.050
7497,-0.045
7498,-0.040
7499,-0.030
7500,-0.025
7501,-0.020
7502,-0.020
7503,-0.020
7504,-0.025
7505,-0.030
7506,-0.035
7507,-0.040
7508,-0.040
7509,-0.040
7510,-0.035
7511,-0.035
7512,-0.035
7513,-0.030
7514,-0.030
7515,-0.030
7516,-0.030
7517,-0.030
7518,-0.030
7519,-0.035
7520,-0.040
7521,-0.040
7522,-0.050
7523,-0.055
7524,-0.060
7525,-0.060
7526,-0.065
7527,-0.060
7528,-0.060
7529,-0.055
7530,-0.045
7531,-0.040
7532,-0.035
7533,-0.035
7534,-0.035
7535,-0.035
7536,-0.040
7537,-0.045
7538,-0.045
7539,-0.045
7540,-0.045
7541,-0.040
7542,-0.035
7543,-0.035
7544,-0.035
7545,-0.035
7546,-0.040
7547,-0.050
7548,-0.055
7549,-0.065
7550,-0.070
7551,-0.075
7552,-0.075
7553,-0.075
7554,-0.070
7555,-0.065
7556,-0.065
7557,-0.060
7558,-0.055
7559,-0.055
7560,-0.050
7561,-0.050
7562,-0.050
7563,-0.050
7564,-0.050
7565,-0.055
7566,-0.060
7567,-0.060
7568,-0.065
7569,-0.065
7570,-0.065
7571,-0.065
7572,-0.060
7573,-0.055
7574,-0.050
7575,-0.050
7576,-0.045
7577,-0.045
7578,-0.050
7579,-0.050
7580,-0.055
7581,-0.055
7582,-0.055
7583,-0.055
7584,-0.050
7585,-0.045
7586,-0.045
7587,-0.045
7588,-0.050
7589,-0.055
7590,-0.060
7591,-0.065
7592,-0.070
7593,-0.075
7594,-0.080
7595,-0.080
7596,-0.075
7597,-0.070
7598,-0.070
7599,-0.060
7600,-0.055
7601,-0.050
7602,-0.045
7603,-0.040
7604,-0.035
7605,-0.030
7606,-0.030
7607,-0.030
7608,-0.030
7609,-0.030
7610,-0.035
7611,-0.035
7612,-0.040
7613,-0.040
7614,-0.040
7615,-0.035
7616,-0.035
7617,-0.030
7618,-0.025
7619,-0.025
7620,-0.020
7621,-0.020
7622,-0.015
7623,-0.015
7624,-0.010
7625,-0.005
7626,0.000
7627,0.010
7628,0.015
7629,0.015
7630,0.020
7631,0.015
7632,0.010
7633,0.005
7634,-0.005
7635,-0.015
7636,-0.020
7637,-0.030
7638,-0.035
7639,-0.040
7640,-0.045
7641,-0.050
7642,-0.055
7643,-0.055
7644,-0.060
7645,-0.060
7646,-0.060
7647,-0.060
7648,-0.060
7649,-0.060
7650,-0.065
7651,-0.065
7652,-0.070
7653,-0.070
7654,-0.075
7655,-0.075
7656,-0.080
7657,-0.075
7658,-0.075
7659,-0.075
7660,-0.070
7661,-0.070
7662,-0.070
7663,-0.070
7664,-0.075
7665,-0.080
7666,-0.085
7667,-0.090
7668,-0.090
7669,-0.090
7670,-0.090
7671,-0.085
7672,-0.085
7673,-0.080
7674,-0.075
7675,-0.075
7676,-0.070
7677,-0.070
7678,-0.070
7679,-0.070
7680,-0.070
7681,-0.075
7682,-0.075
7683,-0.080
7684,-0.085
7685,-0.090
7686,-0.100
7687,-0.105
7688,-0.110
7689,-0.115
7690,-0.115
7691,-0.110
7692,-0.105
7693,-0.095
7694,-0.080
7695,-0.060
7696,-0.035
7697,0.000
7698,0.050
7699,0.110
7700,0.185
7701,0.270
7702,0.365
7703,0.465
7704,0.550
7705,0.620
7706,0.665
7707,0.670
7708,0.640
7709,0.575
7710,0.480
7711,0.365
7712,0.245
7713,0.125
7714,0.015
7715,-0.070
7716,-0.130
7717,-0.165
7718,-0.175
7719,-0.170
7720,-0.155
7721,-0.130
7722,-0.105
7723,-0.080
7724,-0.060
7725,-0.045
7726,-0.035
7727,-0.025
7728,-0.025
7729,-0.025
7730,-0.030
7731,-0.035
7732,-0.040
7733,-0.045
7734,-0.050
7735,-0.055
7736,-0.055
7737,-0.050
7738,-0.045
7739,-0.045
7740,-0.040
7741,-0.040
7742,-0.040
7743,-0.040
7744,-0.040
7745,-0.045
7746,-0.045
7747,-0.040
7748,-0.040
7749,-0.035
7750,-0.030
7751,-0.025
7752,-0.020
7753,-0.015
7754,-0.015
7755,-0.020
7756,-0.020
7757,-0.020
7758,-0.020
7759,-0.015
7760,-0.015
7761,-0.010
7762,0.000
7763,0.005
7764,0.005
7765,0.010
7766,0.010
7767,0.010
7768,0.010
7769,0.005
7770,0.005
7771,0.005
7772,0.005
7773,0.005
7774,0.010
7775,0.010
7776,0.015
7777,0.020
7778,0.025
7779,0.025
7780,0.030
7781,0.035
7782,0.040
7783,0.045
7784,0.045
7785,0.050
7786,0.055
7787,0.060
7788,0.065
7789,0.065
7790,0.070
7791,0.070
7792,0.075
7793,0.080
7794,0.085
7795,0.090
7796,0.100
7797,0.110
7798,0.115
7799,0.125
7800,0.135
7801,0.140
7802,0.150
7803,0.160
7804,0.170
7805,0.180
7806,0.190
7807,0.205
7808,0.215
7809,0.225
7810,0.235
7811,0.240
7812,0.240
7813,0.240
7814,0.235
7815,0.235
7816,0.230
7817,0.225
7818,0.220
7819,0.220
7820,0.220
7821,0.215
7822,0.215
7823,0.210
7824,0.205
7825,0.200
7826,0.195
7827,0.190
7828,0.185
7829,0.180
7830,0.180
7831,0.180
7832,0.175
7833,0.175
7834,0.165
7835,0.155
7836,0.140
7837,0.125
7838,0.105
7839,0.090
7840,0.070
7841,0.060
7842,0.045
7843,0.040
7844,0.035
7845,0.030
7846,0.030
7847,0.025
7848,0.015
7849,0.010
7850,0.000
7851,-0.010
7852,-0.015
7853,-0.020
7854,-0.025
7855,-0.025
7856,-0.025
7857,-0.025
7858,-0.025
7859,-0.025
7860,-0.025
7861,-0.030
7862,-0.040
7863,-0.045
7864,-0.055
7865,-0.060
7866,-0.060
7867,-0.060
7868,-0.055
7869,-0.050
7870,-0.040
7871,-0.035
7872,-0.035
7873,-0.035
7874,-0.035
7875,-0.040
7876,-0.050
7877,-0.055
7878,-0.055
7879,-0.060
7880,-0.055
7881,-0.050
7882,-0.045
7883,-0.035
7884,-0.030
7885,-0.030
7886,-0.030
7887,-0.035
7888,-0.040
7889,-0.045
7890,-0.045
7891,-0.050
7892,-0.050
7893,-0.045
7894,-0.040
7895,-0.040
7896,-0.035
7897,-0.030
7898,-0.030
7899,-0.030
7900,-0.030
7901,-0.030
7902,-0.030
7903,-0.030
7904,-0.030
7905,-0.025
7906,-0.025
7907,-0.020
7908,-0.020
7909,-0.020
7910,-0.020
7911,-0.025
7912,-0.025
7913,-0.025
7914,-0.025
7915,-0.025
7916,-0.025
7917,-0.020
7918,-0.015
7919,-0.015
7920,-0.010
7921,-0.015
7922,-0.015
7923,-0.020
7924,-0.025
7925,-0.030
7926,-0.035
7927,-0.040
7928,-0.040
7929,-0.045
7930,-0.045
7931,-0.045
7932,-0.040
7933,-0.040
7934,-0.035
7935,-0.030
7936,-0.030
7937,-0.030
7938,-0.030
7939,-0.030
7940,-0.030
7941,-0.030
7942,-0.030
7943,-0.030
7944,-0.030
7945,-0.030
7946,-0.025
7947,-0.025
7948,-0.025
7949,-0.030
7950,-0.035
7951,-0.040
7952,-0.045
7953,-0.055
7954,-0.055
7955,-0.060
7956,-0.060
7957,-0.065
7958,-0.060
7959,-0.060
7960,-0.060
7961,-0.060
7962,-0.060
7963,-0.060
7964,-0.060
7965,-0.055
7966,-0.055
7967,-0.050
7968,-0.050
7969,-0.050
7970,-0.050
7971,-0.050
7972,-0.055
7973,-0.060
7974,-0.060
7975,-0.060
7976,-0.065
7977,-0.060
7978,-0.060
7979,-0.060
7980,-0.060
7981,-0.060
7982,-0.065
7983,-0.070
7984,-0.070
7985,-0.075
7986,-0.075
7987,-0.075
7988,-0.075
7989,-0.070
7990,-0.065
7991,-0.065
7992,-0.060
7993,-0.060
7994,-0.060
7995,-0.060
7996,-0.055
7997,-0.055
7998,-0.050
7999,-0.045
8000,-0.040
8001,-0.040
8002,-0.040
8003,-0.045
8004,-0.050
8005,-0.060
8006,-0.065
8007,-0.070
8008,-0.070
8009,-0.070
8010,-0.065
8011,-0.060
8012,-0.050
8013,-0.045
8014,-0.040
8015,-0.040
8016,-0.040
8017,-0.045
8018,-0.045
8019,-0.050
8020,-0.055
8021,-0.055
8022,-0.060
8023,-0.060
8024,-0.065
8025,-0.065
8026,-0.070
8027,-0.070
8028,-0.075
8029,-0.075
8030,-0.070
8031,-0.070
8032,-0.060
8033,-0.055
8034,-0.045
8035,-0.040
8036,-0.035
8037,-0.035
8038,-0.035
8039,-0.040
8040,-0.050
8041,-0.060
8042,-0.070
8043,-0.080
8044,-0.085
8045,-0.085
8046,-0.080
8047,-0.075
8048,-0.065
8049,-0.050
8050,-0.040
8051,-0.030
8052,-0.020
8053,-0.020
8054,-0.020
8055,-0.020
8056,-0.025
8057,-0.035
8058,-0.040
8059,-0.045
8060,-0.040
8061,-0.040
8062,-0.030
8063,-0.020
8064,-0.010
8065,-0.005
8066,0.005
8067,0.005
8068,0.010
8069,0.005
8070,0.000
8071,-0.005
8072,-0.005
8073,-0.005
8074,-0.010
8075,-0.005
8076,-0.005
8077,-0.005
8078,0.000
8079,-0.005
8080,-0.005
8081,-0.010
8082,-0.015
8083,-0.025
8084,-0.030
8085,-0.035
8086,-0.040
8087,-0.040
8088,-0.045
8089,-0.045
8090,-0.045
8091,-0.045
8092,-0.050
8093,-0.050
8094,-0.055
8095,-0.055
8096,-0.060
8097,-0.065
8098,-0.065
8099,-0.065
8100,-0.065
8101,-0.065
8102,-0.065
8103,-0.060
8104,-0.060
8105,-0.060
8106,-0.060
8107,-0.060
8108,-0.065
8109,-0.065
8110,-0.070
8111,-0.075
8112,-0.075
8113,-0.080
8114,-0.085
8115,-0.085
8116,-0.090
8117,-0.090
8118,-0.095
8119,-0.095
8120,-0.090
8121,-0.090
8122,-0.085
8123,-0.085
8124,-0.080
8125,-0.080
8126,-0.085
8127,-0.085
8128,-0.090
8129,-0.095
8130,-0.100
8131,-0.105
8132,-0.105
8133,-0.100
8134,-0.095
8135,-0.090
8136,-0.080
8137,-0.060
8138,-0.040
8139,-0.005
8140,0.040
8141,0.100
8142,0.175
8143,0.260
8144,0.355
8145,0.450
8146,0.540
8147,0.610
8148,0.650
8149,0.665
8150,0.640
8151,0.580
8152,0.495
8153,0.390
8154,0.275
8155,0.155
8156,0.045
8157,-0.045
8158,-0.115
8159,-0.160
8160,-0.185
8161,-0.190
8162,-0.180
8163,-0.160
8164,-0.135
8165,-0.115
8166,-0.095
8167,-0.080
8168,-0.070
8169,-0.060
8170,-0.055
8171,-0.050
8172,-0.045
8173,-0.040
8174,-0.035
8175,-0.035
8176,-0.035
8177,-0.035
8178,-0.040
8179,-0.045
8180,-0.050
8181,-0.055
8182,-0.055
8183,-0.055
8184,-0.050
8185,-0.040
8186,-0.035
8187,-0.030
8188,-0.020
8189,-0.020
8190,-0.020
8191,-0.020
8192,-0.025
8193,-0.025
8194,-0.025
8195,-0.030
8196,-0.030
8197,-0.025
8198,-0.025
8199,-0.025
8200,-0.020
8201,-0.020
8202,-0.015
8203,-0.015
8204,-0.010
8205,-0.005
8206,0.000
8207,0.005
8208,0.005
8209,0.010
8210,0.010
8211,0.005
8212,0.005
8213,0.000
8214,-0.005
8215,-0.005
8216,-0.005
8217,0.000
8218,0.010
8219,0.020
8220,0.030
8221,0.040
8222,0.050
8223,0.060
8224,0.060
8225,0.065
8226,0.065
8227,0.060
8228,0.060
8229,0.065
8230,0.065
8231,0.070
8232,0.075
8233,0.080
8234,0.085
8235,0.085
8236,0.085
8237,0.085
8238,0.090
8239,0.090
8240,0.100
8241,0.105
8242,0.120
8243,0.130
8244,0.145
8245,0.160
8246,0.170
8247,0.175
8248,0.180
8249,0.185
8250,0.190
8251,0.195
8252,0.205
8253,0.210
8254,0.220
8255,0.225
8256,0.230
8257,0.235
8258,0.235
8259,0.230
8260,0.225
8261,0.220
8262,0.220
8263,0.215
8264,0.215
8265,0.220
8266,0.225
8267,0.230
8268,0.230
8269,0.225
8270,0.220
8271,0.210
8272,0.200
8273,0.185
8274,0.170
8275,0.155
8276,0.140
8277,0.130
8278,0.125
8279,0.115
8280,0.110
8281,0.105
8282,0.095
8283,0.090
8284,0.080
8285,0.070
8286,0.055
8287,0.045
8288,0.035
8289,0.025
8290,0.015
8291,0.010
8292,0.005
8293,0.000
8294,-0.005
8295,-0.010
8296,-0.015
8297,-0.015
8298,-0.020
8299,-0.025
8300,-0.025
8301,-0.030
8302,-0.030
8303,-0.035
8304,-0.035
8305,-0.040
8306,-0.040
8307,-0.045
8308,-0.050
8309,-0.055
8310,-0.055
8311,-0.060
8312,-0.060
8313,-0.055
8314,-0.055
8315,-0.050
8316,-0.050
8317,-0.045
8318,-0.040
8319,-0.040
8320,-0.040
8321,-0.040
8322,-0.040
8323,-0.040
8324,-0.045
8325,-0.045
8326,-0.045
8327,-0.040
8328,-0.040
8329,-0.040
8330,-0.040
8331,-0.040
8332,-0.045
8333,-0.045
8334,-0.045
8335,-0.045
8336,-0.040
8337,-0.040
8338,-0.035
8339,-0.030
8340,-0.025
8341,-0.020
8342,-0.020
8343,-0.020
8344,-0.020
8345,-0.025
8346,-0.025
8347,-0.025
8348,-0.020
8349,-0.020
8350,-0.015
8351,-0.015
8352,-0.015
8353,-0.015
8354,-0.020
8355,-0.025
8356,-0.035
8357,-0.040
8358,-0.045
8359,-0.045
8360,-0.045
8361,-0.040
8362,-0.035
8363,-0.025
8364,-0.020
8365,-0.020
8366,-0.020
8367,-0.025
8368,-0.035
8369,-0.045
8370,-0.055
8371,-0.060
8372,-0.065
8373,-0.060
8374,-0.055
8375,-0.045
8376,-0.035
8377,-0.030
8378,-0.025
8379,-0.025
8380,-0.030
8381,-0.040
8382,-0.050
8383,-0.060
8384,-0.065
8385,-0.065
8386,-0.060
8387,-0.055
8388,-0.045
8389,-0.035
8390,-0.030
8391,-0.025
8392,-0.025
8393,-0.030
8394,-0.040
8395,-0.050
8396,-0.055
8397,-0.060
8398,-0.065
8399,-0.065
8400,-0.065
8401,-0.060
8402,-0.055
8403,-0.050
8404,-0.050
8405,-0.050
8406,-0.050
8407,-0.050
8408,-0.050
8409,-0.050
8410,-0.055
8411,-0.060
8412,-0.065
8413,-0.065
8414,-0.070
8415,-0.070
8416,-0.070
8417,-0.070
8418,-0.070
8419,-0.065
8420,-0.060
8421,-0.060
8422,-0.055
8423,-0.055
8424,-0.060
8425,-0.060
8426,-0.065
8427,-0.065
8428,-0.070
8429,-0.070
8430,-0.065
8431,-0.065
8432,-0.060
8433,-0.055
8434,-0.055
8435,-0.055
8436,-0.055
8437,-0.055
8438,-0.060
8439,-0.060
8440,-0.065
8441,-0.065
8442,-0.065
8443,-0.070
8444,-0.070
8445,-0.065
8446,-0.065
8447,-0.060
8448,-0.060
8449,-0.055
8450,-0.055
8451,-0.050
8452,-0.050
8453,-0.055
8454,-0.060
8455,-0.070
8456,-0.075
8457,-0.085
8458,-0.090
8459,-0.090
8460,-0.090
8461,-0.085
8462,-0.075
8463,-0.065
8464,-0.060
8465,-0.050
8466,-0.050
8467,-0.050
8468,-0.055
8469,-0.055
8470,-0.060
8471,-0.060
8472,-0.055
8473,-0.045
8474,-0.040
8475,-0.030
8476,-0.020
8477,-0.015
8478,-0.015
8479,-0.020
8480,-0.020
8481,-0.025
8482,-0.025
8483,-0.025
8484,-0.020
8485,-0.015
8486,-0.010
8487,-0.005
8488,0.000
8489,0.005
8490,0.000
8491,0.000
8492,-0.005
8493,-0.005
8494,-0.005
8495,0.000
8496,0.005
8497,0.010
8498,0.015
8499,0.015
8500,0.010
8501,0.000
8502,-0.010
8503,-0.025
8504,-0.040
8505,-0.050
8506,-0.065
8507,-0.070
8508,-0.075
8509,-0.075
8510,-0.080
8511,-0.080
8512,-0.075
8513,-0.075
8514,-0.075
8515,-0.075
8516,-0.070
8517,-0.070
8518,-0.065
8519,-0.060
8520,-0.060
8521,-0.060
8522,-0.060
8523,-0.060
8524,-0.065
8525,-0.065
8526,-0.070
8527,-0.070
8528,-0.070
8529,-0.070
8530,-0.070
8531,-0.075
8532,-0.080
8533,-0.085
8534,-0.095
8535,-0.100
8536,-0.110
8537,-0.115
8538,-0.115
8539,-0.115
8540,-0.110
8541,-0.105
8542,-0.100
8543,-0.095
8544,-0.090
8545,-0.085
8546,-0.085
8547,-0.085
8548,-0.085
8549,-0.090
8550,-0.095
8551,-0.100
8552,-0.105
8553,-0.110
8554,-0.115
8555,-0.115
8556,-0.115
8557,-0.110
8558,-0.095
8559,-0.075
8560,-0.045
8561,-0.010
8562,0.040
8563,0.100
8564,0.165
8565,0.240
8566,0.325
8567,0.410
8568,0.495
8569,0.570
8570,0.630
8571,0.660
8572,0.660
8573,0.625
8574,0.555
8575,0.455
8576,0.330
8577,0.195
8578,0.070
8579,-0.045
8580,-0.130
8581,-0.185
8582,-0.205
8583,-0.195
8584,-0.170
8585,-0.130
8586,-0.095
8587,-0.060
8588,-0.040
8589,-0.030
8590,-0.025
8591,-0.030
8592,-0.040
8593,-0.045
8594,-0.045
8595,-0.045
8596,-0.045
8597,-0.045
8598,-0.045
8599,-0.050
8600,-0.050
8601,-0.055
8602,-0.055
8603,-0.055
8604,-0.050
8605,-0.045
8606,-0.035
8607,-0.025
8608,-0.020
8609,-0.015
8610,-0.020
8611,-0.025
8612,-0.035
8613,-0.045
8614,-0.050
8615,-0.055
8616,-0.050
8617,-0.040
8618,-0.030
8619,-0.020
8620,-0.010
8621,0.000
8622,0.000
8623,0.000
8624,-0.005
8625,-0.010
8626,-0.015
8627,-0.015
8628,-0.015
8629,-0.010
8630,0.000
8631,0.005
8632,0.010
8633,0.015
8634,0.015
8635,0.010
8636,0.005
8637,0.000
8638,0.000
8639,0.000
8640,0.005
8641,0.015
8642,0.025
8643,0.035
8644,0.045
8645,0.055
8646,0.060
8647,0.060
8648,0.060
8649,0.055
8650,0.055
8651,0.055
8652,0.060
8653,0.065
8654,0.075
8655,0.085
8656,0.090
8657,0.095
8658,0.095
8659,0.095
8660,0.095
8661,0.095
8662,0.095
8663,0.095
8664,0.100
8665,0.110
8666,0.120
8667,0.135
8668,0.145
8669,0.160
8670,0.170
8671,0.175
8672,0.185
8673,0.190
8674,0.200
8675,0.210
8676,0.220
8677,0.230
8678,0.240
8679,0.245
8680,0.250
8681,0.250
8682,0.245
8683,0.240
8684,0.230
8685,0.220
8686,0.215
8687,0.205
8688,0.205
8689,0.200
8690,0.205
8691,0.205
8692,0.205
8693,0.205
8694,0.200
8695,0.195
8696,0.185
8697,0.175
8698,0.165
8699,0.150
8700,0.135
8701,0.120
8702,0.105
8703,0.090
8704,0.080
8705,0.065
8706,0.055
8707,0.050
8708,0.040
8709,0.030
8710,0.025
8711,0.020
8712,0.015
8713,0.015
8714,0.010
8715,0.005
8716,0.000
8717,0.000
8718,-0.005
8719,-0.010
8720,-0.015
8721,-0.020
8722,-0.025
8723,-0.030
8724,-0.035
8725,-0.040
8726,-0.040
8727,-0.045
8728,-0.050
8729,-0.050
8730,-0.055
8731,-0.055
8732,-0.055
8733,-0.055
8734,-0.055
8735,-0.055
8736,-0.050
8737,-0.050
8738,-0.050
8739,-0.050
8740,-0.050
8741,-0.055
8742,-0.055
8743,-0.060
8744,-0.060
8745,-0.060
8746,-0.060
8747,-0.055
8748,-0.050
8749,-0.045
8750,-0.045
8751,-0.040
8752,-0.040
8753,-0.040
8754,-0.045
8755,-0.045
8756,-0.045
8757,-0.045
8758,-0.040
8759,-0.035
8760,-0.030
8761,-0.025
8762,-0.020
8763,-0.020
8764,-0.025
8765,-0.035
8766,-0.045
8767,-0.050
8768,-0.060
8769,-0.060
8770,-0.060
8771,-0.055
8772,-0.050
8773,-0.040
8774,-0.035
8775,-0.030
8776,-0.030
8777,-0.035
8778,-0.040
8779,-0.045
8780,-0.050
8781,-0.055
8782,-0.055
8783,-0.050
8784,-0.045
8785,-0.035
8786,-0.030
8787,-0.030
8788,-0.025
8789,-0.030
8790,-0.035
8791,-0.035
8792,-0.040
8793,-0.045
8794,-0.040
8795,-0.040
8796,-0.035
8797,-0.030
8798,-0.025
8799,-0.025
8800,-0.025
8801,-0.025
8802,-0.035
8803,-0.040
8804,-0.050
8805,-0.060
8806,-0.065
8807,-0.075
8808,-0.075
8809,-0.075
8810,-0.075
8811,-0.070
8812,-0.065
8813,-0.055
8814,-0.050
8815,-0.050
8816,-0.045
8817,-0.045
8818,-0.045
8819,-0.050
8820,-0.050
8821,-0.050
8822,-0.045
8823,-0.045
8824,-0.045
8825,-0.045
8826,-0.050
8827,-0.050
8828,-0.055
8829,-0.060
8830,-0.065
8831,-0.065
8832,-0.065
8833,-0.060
8834,-0.055
8835,-0.045
8836,-0.040
8837,-0.035
8838,-0.035
8839,-0.040
8840,-0.045
8841,-0.050
8842,-0.060
8843,-0.070
8844,-0.070
8845,-0.075
8846,-0.075
8847,-0.070
8848,-0.065
8849,-0.065
8850,-0.065
8851,-0.065
8852,-0.070
8853,-0.075
8854,-0.080
8855,-0.080
8856,-0.080
8857,-0.080
8858,-0.075
8859,-0.070
8860,-0.060
8861,-0.060
8862,-0.055
8863,-0.055
8864,-0.060
8865,-0.065
8866,-0.070
8867,-0.075
8868,-0.075
8869,-0.080
8870,-0.080
8871,-0.075
8872,-0.075
8873,-0.070
8874,-0.065
8875,-0.065
8876,-0.065
8877,-0.065
8878,-0.065
8879,-0.065
8880,-0.070
8881,-0.070
8882,-0.070
8883,-0.075
8884,-0.075
8885,-0.075
8886,-0.075
8887,-0.075
8888,-0.075
8889,-0.075
8890,-0.075
8891,-0.075
8892,-0.070
8893,-0.070
8894,-0.060
8895,-0.055
8896,-0.045
8897,-0.035
8898,-0.025
8899,-0.015
8900,-0.010
8901,-0.010
8902,-0.015
8903,-0.025
8904,-0.035
8905,-0.040
8906,-0.045
8907,-0.045
8908,-0.040
8909,-0.030
8910,-0.015
8911,-0.005
8912,0.005
8913,0.010
8914,0.010
8915,0.005
8916,0.000
8917,-0.010
8918,-0.015
8919,-0.020
8920,-0.025
8921,-0.025
8922,-0.025
8923,-0.025
8924,-0.025
8925,-0.030
8926,-0.035
8927,-0.040
8928,-0.050
8929,-0.055
8930,-0.055
8931,-0.055
8932,-0.050
8933,-0.050
8934,-0.045
8935,-0.045
8936,-0.050
8937,-0.055
8938,-0.065
8939,-0.075
8940,-0.085
8941,-0.090
8942,-0.095
8943,-0.095
8944,-0.090
8945,-0.085
8946,-0.085
8947,-0.080
8948,-0.080
8949,-0.080
8950,-0.080
8951,-0.080
8952,-0.085
8953,-0.085
8954,-0.085
8955,-0.090
8956,-0.095
8957,-0.095
8958,-0.100
8959,-0.100
8960,-0.105
8961,-0.100
8962,-0.100
8963,-0.095
8964,-0.090
8965,-0.080
8966,-0.080
8967,-0.075
8968,-0.080
8969,-0.080
8970,-0.090
8971,-0.100
8972,-0.105
8973,-0.115
8974,-0.120
8975,-0.120
8976,-0.120
8977,-0.120
8978,-0.115
8979,-0.110
8980,-0.100
8981,-0.090
8982,-0.075
8983,-0.050
8984,-0.015
8985,0.035
8986,0.095
8987,0.170
8988,0.260
8989,0.355
8990,0.450
8991,0.540
8992,0.610
8993,0.660
8994,0.675
8995,0.660
8996,0.610
8997,0.525
8998,0.420
8999,0.295
9000,0.175
9001,0.060
9002,-0.040
9003,-0.110
9004,-0.155
9005,-0.170
9006,-0.165
9007,-0.150
9008,-0.120
9009,-0.095
9010,-0.070
9011,-0.055
9012,-0.050
9013,-0.045
9014,-0.050
9015,-0.055
9016,-0.060
9017,-0.065
9018,-0.065
9019,-0.060
9020,-0.055
9021,-0.045
9022,-0.040
9023,-0.035
9024,-0.030
9025,-0.030
9026,-0.030
9027,-0.035
9028,-0.040
9029,-0.045
9030,-0.050
9031,-0.050
9032,-0.050
9033,-0.050
9034,-0.045
9035,-0.040
9036,-0.040
9037,-0.035
9038,-0.040
9039,-0.040
9040,-0.040
9041,-0.045
9042,-0.040
9043,-0.040
9044,-0.030
9045,-0.020
9046,-0.010
9047,0.005
9048,0.015
9049,0.020
9050,0.020
9051,0.020
9052,0.015
9053,0.010
9054,0.000
9055,0.000
9056,-0.005
9057,0.000
9058,0.000
9059,0.005
9060,0.010
9061,0.015
9062,0.020
9063,0.015
9064,0.015
9065,0.015
9066,0.010
9067,0.015
9068,0.015
9069,0.025
9070,0.030
9071,0.040
9072,0.050
9073,0.055
9074,0.060
9075,0.065
9076,0.065
9077,0.065
9078,0.065
9079,0.065
9080,0.070
9081,0.080
9082,0.090
9083,0.100
9084,0.115
9085,0.125
9086,0.135
9087,0.140
9088,0.145
9089,0.150
9090,0.155
9091,0.160
9092,0.170
9093,0.175
9094,0.185
9095,0.195
9096,0.205
9097,0.210
9098,0.220
9099,0.225
9100,0.230
9101,0.235
9102,0.240
9103,0.240
9104,0.240
9105,0.240
9106,0.235
9107,0.235
9108,0.230
9109,0.230
9110,0.225
9111,0.225
9112,0.230
9113,0.230
9114,0.230
9115,0.230
9116,0.225
9117,0.220
9118,0.210
9119,0.200
9120,0.185
9121,0.165
9122,0.150
9123,0.135
9124,0.125
9125,0.115
9126,0.105
9127,0.095
9128,0.085
9129,0.075
9130,0.065
9131,0.055
9132,0.045
9133,0.040
9134,0.035
9135,0.030
9136,0.030
9137,0.025
9138,0.025
9139,0.020
9140,0.010
9141,0.005
9142,-0.005
9143,-0.010
9144,-0.020
9145,-0.020
9146,-0.025
9147,-0.025
9148,-0.025
9149,-0.025
9150,-0.025
9151,-0.030
9152,-0.030
9153,-0.035
9154,-0.040
9155,-0.045
9156,-0.045
9157,-0.045
9158,-0.045
9159,-0.040
9160,-0.035
9161,-0.035
9162,-0.030
9163,-0.025
9164,-0.025
9165,-0.025
9166,-0.025
9167,-0.030
9168,-0.035
9169,-0.040
9170,-0.040
9171,-0.045
9172,-0.045
9173,-0.045
9174,-0.045
9175,-0.040
9176,-0.035
9177,-0.030
9178,-0.030
9179,-0.030
9180,-0.035
9181,-0.045
9182,-0.055
9183,-0.065
9184,-0.070
9185,-0.070
9186,-0.065
9187,-0.055
9188,-0.045
9189,-0.035
9190,-0.030
9191,-0.025
9192,-0.025
9193,-0.030
9194,-0.040
9195,-0.045
9196,-0.050
9197,-0.050
9198,-0.045
9199,-0.035
9200,-0.030
9201,-0.020
9202,-0.015
9203,-0.015
9204,-0.015
9205,-0.020
9206,-0.025
9207,-0.030
9208,-0.030
9209,-0.030
9210,-0.025
9211,-0.025
9212,-0.025
9213,-0.025
9214,-0.030
9215,-0.035
9216,-0.040
9217,-0.045
9218,-0.050
9219,-0.055
9220,-0.055
9221,-0.050
9222,-0.050
9223,-0.050
9224,-0.045
9225,-0.045
9226,-0.045
9227,-0.045
9228,-0.045
9229,-0.045
9230,-0.045
9231,-0.040
9232,-0.040
9233,-0.040
9234,-0.040
9235,-0.045
9236,-0.050
9237,-0.055
9238,-0.055
9239,-0.055
9240,-0.050
9241,-0.045
9242,-0.040
9243,-0.030
9244,-0.030
9245,-0.030
9246,-0.035
9247,-0.040
9248,-0.050
9249,-0.055
9250,-0.060
9251,-0.065
9252,-0.060
9253,-0.060
9254,-0.055
9255,-0.050
9256,-0.050
9257,-0.050
9258,-0.050
9259,-0.055
9260,-0.060
9261,-0.065
9262,-0.070
9263,-0.075
9264,-0.075
9265,-0.070
9266,-0.065
9267,-0.060
9268,-0.060
9269,-0.055
9270,-0.055
9271,-0.055
9272,-0.055
9273,-0.055
9274,-0.060
9275,-0.065
9276,-0.065
9277,-0.070
9278,-0.070
9279,-0.070
9280,-0.070
9281,-0.065
9282,-0.060
9283,-0.055
9284,-0.050
9285,-0.045
9286,-0.045
9287,-0.045
9288,-0.050
9289,-0.055
9290,-0.065
9291,-0.070
9292,-0.070
9293,-0.070
9294,-0.065
9295,-0.060
9296,-0.060
9297,-0.055
9298,-0.055
9299,-0.060
9300,-0.065
9301,-0.070
9302,-0.075
9303,-0.080
9304,-0.080
9305,-0.080
9306,-0.070
9307,-0.065
9308,-0.055
9309,-0.045
9310,-0.040
9311,-0.035
9312,-0.035
9313,-0.035
9314,-0.035
9315,-0.035
9316,-0.035
9317,-0.035
9318,-0.030
9319,-0.025
9320,-0.025
9321,-0.020
9322,-0.020
9323,-0.020
9324,-0.020
9325,-0.020
9326,-0.020
9327,-0.020
9328,-0.015
9329,-0.010
9330,-0.005
9331,0.000
9332,0.000
9333,0.000
9334,-0.005
9335,-0.005
9336,-0.010
9337,-0.010
9338,-0.010
9339,-0.010
9340,-0.010
9341,-0.015
9342,-0.020
9343,-0.025
9344,-0.030
9345,-0.040
9346,-0.055
9347,-0.060
9348,-0.070
9349,-0.075
9350,-0.075
9351,-0.070
9352,-0.070
9353,-0.065
9354,-0.065
9355,-0.065
9356,-0.065
9357,-0.070
9358,-0.075
9359,-0.075
9360,-0.080
9361,-0.080
9362,-0.080
9363,-0.075
9364,-0.075
9365,-0.070
9366,-0.070
9367,-0.075
9368,-0.075
9369,-0.080
9370,-0.080
9371,-0.080
9372,-0.080
9373,-0.075
9374,-0.070
9375,-0.065
9376,-0.065
9377,-0.060
9378,-0.060
9379,-0.070
9380,-0.075
9381,-0.085
9382,-0.095
9383,-0.105
9384,-0.110
9385,-0.110
9386,-0.105
9387,-0.100
9388,-0.090
9389,-0.080
9390,-0.070
9391,-0.070
9392,-0.070
9393,-0.080
9394,-0.085
9395,-0.090
9396,-0.090
9397,-0.075
9398,-0.045
9399,0.000
9400,0.065
9401,0.145
9402,0.235
9403,0.330
9404,0.420
9405,0.500
9406,0.565
9407,0.605
9408,0.625
9409,0.615
9410,0.580
9411,0.515
9412,0.425
9413,0.320
9414,0.205
9415,0.090
9416,-0.015
9417,-0.100
9418,-0.165
9419,-0.200
9420,-0.215
9421,-0.200
9422,-0.175
9423,-0.140
9424,-0.105
9425,-0.075
9426,-0.055
9427,-0.045
9428,-0.040
9429,-0.040
9430,-0.045
9431,-0.045
9432,-0.045
9433,-0.045
9434,-0.040
9435,-0.035
9436,-0.035
9437,-0.040
9438,-0.045
9439,-0.055
9440,-0.060
9441,-0.065
9442,-0.065
9443,-0.065
9444,-0.055
9445,-0.050
9446,-0.040
9447,-0.035
9448,-0.030
9449,-0.025
9450,-0.025
9451,-0.025
9452,-0.025
9453,-0.025
9454,-0.025
9455,-0.020
9456,-0.020
9457,-0.015
9458,-0.015
9459,-0.010
9460,-0.010
9461,-0.010
9462,-0.010
9463,-0.005
9464,-0.005
9465,0.000
9466,0.000
9467,0.000
9468,0.000
9469,-0.005
9470,-0.005
9471,-0.010
9472,-0.010
9473,-0.010
9474,-0.010
9475,-0.005
9476,0.005
9477,0.010
9478,0.020
9479,0.025
9480,0.030
9481,0.030
9482,0.025
9483,0.025
9484,0.020
9485,0.020
9486,0.025
9487,0.030
9488,0.040
9489,0.055
9490,0.070
9491,0.085
9492,0.100
9493,0.105
9494,0.110
9495,0.110
9496,0.110
9497,0.105
9498,0.105
9499,0.105
9500,0.110
9501,0.115
9502,0.125
9503,0.135
9504,0.145
9505,0.155
9506,0.165
9507,0.170
9508,0.175
9509,0.180
9510,0.190
9511,0.195
9512,0.205
9513,0.220
9514,0.230
9515,0.240
9516,0.245
9517,0.250
9518,0.250
9519,0.250
9520,0.245
9521,0.240
9522,0.235
9523,0.230
9524,0.230
9525,0.225
9526,0.225
9527,0.220
9528,0.220
9529,0.215
9530,0.210
9531,0.205
9532,0.195
9533,0.185
9534,0.170
9535,0.160
9536,0.145
9537,0.130
9538,0.110
9539,0.095
9540,0.085
9541,0.075
9542,0.065
9543,0.060
9544,0.055
9545,0.050
9546,0.045
9547,0.040
9548,0.035
9549,0.025
9550,0.015
9551,0.005
9552,-0.005
9553,-0.010
9554,-0.020
9555,-0.025
9556,-0.025
9557,-0.030
9558,-0.030
9559,-0.030
9560,-0.035
9561,-0.035
9562,-0.040
9563,-0.040
9564,-0.045
9565,-0.045
9566,-0.045
9567,-0.045
9568,-0.045
9569,-0.045
9570,-0.040
9571,-0.040
9572,-0.045
9573,-0.045
9574,-0.050
9575,-0.060
9576,-0.065
9577,-0.065
9578,-0.065
9579,-0.065
9580,-0.060
9581,-0.055
9582,-0.050
9583,-0.045
9584,-0.040
9585,-0.040
9586,-0.040
9587,-0.040
9588,-0.040
9589,-0.040
9590,-0.035
9591,-0.035
9592,-0.030
9593,-0.030
9594,-0.030
9595,-0.030
9596,-0.030
9597,-0.035
9598,-0.035
9599,-0.040
9600,-0.040
9601,-0.040
9602,-0.035
9603,-0.035
9604,-0.030
9605,-0.030
9606,-0.035
9607,-0.040
9608,-0.050
9609,-0.055
9610,-0.055
9611,-0.055
9612,-0.055
9613,-0.045
9614,-0.040
9615,-0.030
9616,-0.025
9617,-0.025
9618,-0.025
9619,-0.030
9620,-0.035
9621,-0.040
9622,-0.045
9623,-0.050
9624,-0.045
9625,-0.040
9626,-0.035
9627,-0.030
9628,-0.025
9629,-0.025
9630,-0.030
9631,-0.035
9632,-0.040
9633,-0.040
9634,-0.045
9635,-0.045
9636,-0.050
9637,-0.045
9638,-0.045
9639,-0.045
9640,-0.050
9641,-0.050
9642,-0.050
9643,-0.050
9644,-0.050
9645,-0.045
9646,-0.040
9647,-0.035
9648,-0.030
9649,-0.030
9650,-0.025
9651,-0.030
9652,-0.030
9653,-0.035
9654,-0.035
9655,-0.035
9656,-0.035
9657,-0.035
9658,-0.035
9659,-0.035
9660,-0.040
9661,-0.045
9662,-0.050
9663,-0.055
9664,-0.065
9665,-0.070
9666,-0.075
9667,-0.075
9668,-0.080
9669,-0.080
9670,-0.080
9671,-0.075
9672,-0.075
9673,-0.075
9674,-0.075
9675,-0.075
9676,-0.070
9677,-0.070
9678,-0.065
9679,-0.065
9680,-0.065
9681,-0.065
9682,-0.065
9683,-0.070
9684,-0.075
9685,-0.075
9686,-0.075
9687,-0.070
9688,-0.065
9689,-0.060
9690,-0.050
9691,-0.045
9692,-0.040
9693,-0.040
9694,-0.045
9695,-0.055
9696,-0.060
9697,-0.070
9698,-0.080
9699,-0.085
9700,-0.090
9701,-0.085
9702,-0.080
9703,-0.075
9704,-0.065
9705,-0.055
9706,-0.045
9707,-0.035
9708,-0.030
9709,-0.030
9710,-0.030
9711,-0.030
9712,-0.035
9713,-0.040
9714,-0.040
9715,-0.045
9716,-0.050
9717,-0.050
9718,-0.050
9719,-0.050
9720,-0.045
9721,-0.035
9722,-0.025
9723,-0.015
9724,-0.005
9725,0.000
9726,0.005
9727,0.010
9728,0.010
9729,0.010
9730,0.010
9731,0.005
9732,0.000
9733,-0.005
9734,-0.010
9735,-0.020
9736,-0.025
9737,-0.035
9738,-0.040
9739,-0.050
9740,-0.055
9741,-0.060
9742,-0.065
9743,-0.070
9744,-0.070
9745,-0.070
9746,-0.070
9747,-0.065
9748,-0.070
9749,-0.070
9750,-0.070
9751,-0.075
9752,-0.080
9753,-0.080
9754,-0.085
9755,-0.085
9756,-0.090
9757,-0.090
9758,-0.090
9759,-0.085
9760,-0.085
9761,-0.085
9762,-0.085
9763,-0.085
9764,-0.085
9765,-0.085
9766,-0.090
9767,-0.090
9768,-0.090
9769,-0.090
9770,-0.090
9771,-0.090
9772,-0.090
9773,-0.085
9774,-0.085
9775,-0.085
9776,-0.085
9777,-0.090
9778,-0.090
9779,-0.095
9780,-0.100
9781,-0.105
9782,-0.105
9783,-0.105
9784,-0.100
9785,-0.100
9786,-0.095
9787,-0.090
9788,-0.090
9789,-0.095
9790,-0.100
9791,-0.105
9792,-0.110
9793,-0.110
9794,-0.105
9795,-0.085
9796,-0.055
9797,-0.015
9798,0.045
9799,0.110
9800,0.190
9801,0.275
9802,0.360
9803,0.440
9804,0.510
9805,0.560
9806,0.595
9807,0.600
9808,0.580
9809,0.530
9810,0.455
9811,0.360
9812,0.255
9813,0.150
9814,0.045
9815,-0.040
9816,-0.110
9817,-0.150
9818,-0.170
9819,-0.175
9820,-0.160
9821,-0.140
9822,-0.120
9823,-0.100
9824,-0.085
9825,-0.075
9826,-0.070
9827,-0.065
9828,-0.060
9829,-0.060
9830,-0.055
9831,-0.050
9832,-0.045
9833,-0.045
9834,-0.050
9835,-0.050
9836,-0.060
9837,-0.065
9838,-0.070
9839,-0.075
9840,-0.070
9841,-0.065
9842,-0.060
9843,-0.050
9844,-0.040
9845,-0.035
9846,-0.030
9847,-0.030
9848,-0.030
9849,-0.030
9850,-0.035
9851,-0.035
9852,-0.035
9853,-0.030
9854,-0.025
9855,-0.020
9856,-0.015
9857,-0.010
9858,-0.005
9859,-0.005
9860,-0.005
9861,-0.005
9862,-0.005
9863,0.000
9864,0.000
9865,0.000
9866,0.005
9867,0.005
9868,0.000
9869,0.000
9870,-0.005
9871,-0.010
9872,-0.015
9873,-0.015
9874,-0.015
9875,-0.010
9876,-0.005
9877,0.005
9878,0.010
9879,0.020
9880,0.025
9881,0.030
9882,0.030
9883,0.030
9884,0.030
9885,0.030
9886,0.030
9887,0.030
9888,0.035
9889,0.040
9890,0.045
9891,0.050
9892,0.060
9893,0.065
9894,0.075
9895,0.085
9896,0.095
9897,0.100
9898,0.110
9899,0.120
9900,0.130
9901,0.145
9902,0.155
9903,0.165
9904,0.170
9905,0.180
9906,0.185
9907,0.190
9908,0.195
9909,0.195
9910,0.195
9911,0.195
9912,0.195
9913,0.190
9914,0.190
9915,0.190
9916,0.195
9917,0.195
9918,0.200
9919,0.200
9920,0.205
9921,0.205
9922,0.205
9923,0.205
9924,0.205
9925,0.200
9926,0.200
9927,0.200
9928,0.205
9929,0.205
9930,0.205
9931,0.200
9932,0.195
9933,0.180
9934,0.165
9935,0.150
9936,0.130
9937,0.115
9938,0.100
9939,0.085
9940,0.080
9941,0.070
9942,0.065
9943,0.060
9944,0.055
9945,0.045
9946,0.030
9947,0.020
9948,0.005
9949,-0.005
9950,-0.015
9951,-0.020
9952,-0.020
9953,-0.020
9954,-0.020
9955,-0.025
9956,-0.030
9957,-0.035
9958,-0.040
9959,-0.045
9960,-0.050
9961,-0.055
9962,-0.055
9963,-0.055
9964,-0.055
9965,-0.050
9966,-0.045
9967,-0.040
9968,-0.040
9969,-0.040
9970,-0.040
9971,-0.040
9972,-0.040
9973,-0.040
9974,-0.035
9975,-0.035
9976,-0.035
9977,-0.030
9978,-0.030
9979,-0.030
9980,-0.030
9981,-0.030
9982,-0.030
9983,-0.035
9984,-0.040
9985,-0.040
9986,-0.045
9987,-0.050
9988,-0.050
9989,-0.055
9990,-0.055
9991,-0.060
9992,-0.055
9993,-0.055
9994,-0.055
9995,-0.050
9996,-0.050
9997,-0.045
9998,-0.045
9999,-0.045
