Time,Amplitude
0.0,100.0
0.003334444814938313,99.15706868533675
0.006668889629876626,96.65254021859928
0.010003334444814937,92.55838220286364
0.013337779259753251,86.9918086108424
0.016672224074691565,80.1112880958798
0.020006668889629875,72.11116409291317
0.02334111370456819,63.21508542344802
0.026675558519506502,53.66848940272816
0.030010003334444816,43.73041336243928
0.03334444814938313,33.66493376110027
0.03667889296432144,23.73254379461103
0.04001333777925975,14.181780237684087
0.04334778259419807,5.24139821282483
0.04668222740913638,-2.8866307643593885
0.050016672224074694,-10.033055792728069
0.053351117039013005,-16.06601959593325
0.056685561853951315,-20.894318315363876
0.06002000666888963,-24.46915389706301
0.06335445148382794,-26.784342917100837
0.06668889629876626,-27.875004422419696
0.07002334111370456,-27.814806484919565
0.07335778592864288,-26.711904448588026
0.0766922307435812,-24.70375123931189
0.0800266755585195,-21.950999806142434
0.08336112037345782,-18.63074829828915
0.08669556518839613,-14.929398863394308
0.09003001000333445,-11.0354103121422
0.09336445481827275,-7.132223110583164
0.09669889963321107,-3.391622464071416
0.10003334444814939,0.032217688305994585
0.10336778926308769,3.0077990710241522
0.10670223407802601,5.430301031879766
0.11003667889296433,7.224395127402131
0.11337112370790263,8.34579736889561
0.11670556852284095,8.781535131815506
0.12004001333777926,8.548957559667228
0.12337445815271757,7.693567884310353
0.12670890296765588,6.285801461365706
0.1300433477825942,4.416912708656695
0.13337779259753252,2.194166036524897
0.13671223741247082,-0.26445089786493803
0.14004668222740912,-2.835759488349268
0.14338112704234746,-5.396931956182712
0.14671557185728576,-7.830812400609867
0.15005001667222406,-10.03080217644336
0.1533844614871624,-11.905118482914764
0.1567189063021007,-13.380266295551053
0.160053351117039,-14.403600987776105
0.16338779593197733,-14.944900497191846
0.16672224074691563,-14.996909867027284
0.17005668556185397,-14.574865537286701
0.17339113037679227,-13.715049982364235
0.17672557519173057,-12.472467390232646
0.1800600200066689,-10.917766413893089
0.1833944648216072,-9.133565190026346
0.1867289096365455,-7.210355690856522
0.19006335445148384,-5.242178261411999
0.19339779926642214,-3.322262462864682
0.19673224408136045,-1.5388270326638072
0.20006668889629878,0.02877980806221281
0.20340113371123708,1.313437661525084
0.20673557852617538,2.2629726655399267
0.21007002334111372,2.8421326231511763
0.21340446815605202,3.033748718266083
0.21673891297099032,2.8390514747456033
0.22007335778592865,2.277146760046789
0.22340780260086696,1.3836947548714345
0.22674224741580526,0.20886930139593285
0.2300766922307436,-1.185294560490497
0.2334111370456819,-2.728032019287303
0.2367455818606202,-4.343307354666108
0.24008002667555853,-5.953437111962367
0.24341447149049683,-7.482710331200702
0.24674891630543513,-8.860841964236865
0.25008336112037344,-10.026106250842119
0.25341780593531177,-10.92801411628832
0.2567522507502501,-11.529421722100786
0.2600866955651884,-11.807985028460788
0.2634211403801267,-11.756906301705417
0.26675558519506504,-11.384951484459773
0.2700900300100033,-10.715750735987275
0.27342447482494164,-9.786426746499304
0.27675891963988,-8.645625201300314
0.28009336445481825,-7.351047720966447
0.2834278092697566,-5.9666086228047766
0.2867622540846949,-4.559352062480758
0.2900966988996332,-3.19627492016574
0.2934311437145715,-1.9412028850134178
0.29676558852950985,-0.8518625625142349
0.3001000333444481,0.022718619747559288
0.30343447815938646,0.644369817510718
0.3067689229743248,0.987398478122401
0.31010336778926306,1.0396091686074787
0.3134378126042014,0.8026808896275561
0.3167722574191397,0.2918941868033631
0.320106702234078,-0.4647706632268762
0.32344114704901633,-1.4281144893159827
0.32677559186395466,-2.5497031829328276
0.330110036678893,-3.7742566534945925
0.33344448149383127,-5.04232718719448
0.3367789263087696,-6.293139634524453
0.34011337112370793,-7.467459851185172
0.3434478159386462,-8.510358007239194
0.34678226075358454,-9.37373968805852
0.35011670556852287,-10.01852978832098
0.35345115038346114,-10.416411438438164
0.3567855951983995,-10.55104376353516
0.3601200400133378,-10.418707131379959
0.3634544848282761,-10.028351529292777
0.3667889296432144,-9.401051565976145
0.37012337445815274,-8.568899038083895
0.373457819273091,-7.573389778243294
0.37679226408802935,-6.463384442419043
0.3801267089029677,-5.292741969888419
0.38346115371790596,-4.117738813221935
0.3867955985328443,-2.9943960647679564
0.3901300433477826,-1.9758399251112522
0.3934644881627209,-1.1098184567031915
0.3967989329776592,-0.4364893986000826
0.40013337779259756,0.0134195992471966
0.40346782260753583,0.21999497870684515
0.40680226742247416,0.17500392278799204
0.4101367122374125,-0.11779347343129665
0.41347115705235077,-0.6428976016778707
0.4168056018672891,-1.373873008404761
0.42014004668222743,-2.2746614997141568
0.4234744914971657,-3.301340354241043
0.42680893631210404,-4.404240926182067
0.43014338112704237,-5.530326565846816
0.43347782594198064,-6.625717200115483
0.436812270756919,-7.638241613095731
0.4401467155718573,-8.519897715834086
0.4434811603867956,-9.229105904309437
0.4468156052017339,-9.732650732146459
0.45015005001667224,-10.00722107963847
0.4534844948316105,-10.040478074226904
0.45681893964654885,-9.831602312660767
0.4601533844614872,-9.391296409213027
0.46348782927642546,-8.741244407810644
0.4668222740913638,-7.913054964363132
0.4701567189063021,-6.946739254387772
0.4734911637212404,-5.888796179507083
0.4768256085361787,-4.789995638452681
0.48016005335111706,-3.7029645580532953
0.48349449816605533,-2.679689409794575
0.48682894298099366,-1.7690526577683823
0.490163387795932,-1.0145188297696777
0.49349783261087027,-0.4520787636305901
0.4968322774258086,-0.10854839285404871
0.5001667222407469,-0.00030176938571102596
0.5035011670556853,-0.13249765347456055
0.5068356118706235,-0.49883587812361263
0.5101700566855618,-1.0818548925633031
0.5135045015005002,-1.8537565568245356
0.5168389463154385,-2.7777195735397795
0.5201733911303767,-3.8096400495021157
0.5235078359453151,-4.900217641666039
0.5268422807602534,-5.997289492075041
0.5301767255751917,-7.048302451027561
0.5335111703901301,-8.002807475516517
0.5368456152050683,-8.814858883542971
0.5401800600200066,-9.445205407664158
0.543514504834945,-9.863169533613949
0.5468489496498833,-10.048125998113298
0.5501833944648216,-9.990508895276022
0.55351783927976,-9.692298749613606
0.5568522840946982,-9.166965145871043
0.5601867289096365,-8.438865942302154
0.5635211737245749,-7.542129556526499
0.5668556185395132,-6.519071119440738
0.5701900633544514,-5.41821531045036
0.5735245081693898,-4.292017386575617
0.5768589529843281,-3.1943884188622924
0.5801933977992664,-2.178140363175898
0.5835278426142048,-1.29247085350584
0.586862287429143,-0.5806062946327382
0.5901967322440813,-0.0777149844039009
0.5935311770590197,0.19081009308525054
0.596865621873958,0.21061595684942525
0.6002000666888962,-0.020860301591119068
0.6035345115038346,-0.4941944204861155
0.6068689563187729,-1.188343522138057
0.6102034011337112,-2.071566588066803
0.6135378459486496,-3.1028571933750353
0.6168722907635878,-4.233824594537694
0.6202067355785261,-5.410937841829749
0.6235411803934645,-6.578029996800149
0.6268756252084028,-7.678946617077894
0.6302100700233411,-8.660215055506189
0.6335445148382794,-9.47360919780674
0.6368789596532177,-10.078488162380069
0.640213404468156,-10.443797069600997
0.6435478492830944,-10.549632855188328
0.6468822940980327,-10.388297605606844
0.650216738912971,-9.964785167229302
0.6535511837279093,-9.29667277902704
0.6568856285428476,-8.41341702105159
0.660220073357786,-7.355081197422184
0.6635545181727243,-6.170548098924499
0.6668889629876625,-4.915296667692859
0.6702234078026009,-3.64884225837938
0.6735578526175392,-2.431956946496718
0.6768922974324775,-1.3237978587365815
0.6802267422474159,-0.3790772081610867
0.6835611870623541,0.35459271316033547
0.6868956318772924,0.839052944117781
0.6902300766922308,1.0475355828500597
0.6935645215071691,0.9660897336775758
0.6968989663221073,0.5944222183437784
0.7002334111370457,-0.0538940864218187
0.703567855951984,-0.9518626040659051
0.7069023007669223,-2.0601443993223096
0.7102367455818607,-3.3287369311424087
0.713571190396799,-4.699180308097239
0.7169056352117372,-6.1071956534338385
0.7202400800266756,-7.4856387603086825
0.7235745248416139,-8.767635882399968
0.7269089696565522,-9.889758076293813
0.7302434144714905,-10.795086546085708
0.7335778592864288,-11.436024206871044
0.7369123041013671,-11.776718148924537
0.7402467489163055,-11.794973510379027
0.7435811937312438,-11.48356082193039
0.746915638546182,-10.850845273033029
0.7502500833611204,-9.92069643463838
0.7535845281760587,-8.73166944508398
0.756918972990997,-7.3354820832751635
0.7602534178059354,-5.794845013585296
0.7635878626208736,-4.180733290173584
0.7669223074358119,-2.5692145257088974
0.7702567522507503,-1.0379716676290958
0.7735911970656886,0.33732501358977096
0.7769256418806268,1.486632185459326
0.7802600866955652,2.3489667795954263
0.7835945315105035,2.8754960857029586
0.7869289763254418,3.032134646217597
0.7902634211403802,2.8015173340099047
0.7935978659553184,2.1842436213472585
0.7969323107702567,1.1993189151848096
0.8002667555851951,-0.1162463433406451
0.8036012004001334,-1.7086818206300087
0.8069356452150717,-3.5095105247319314
0.81027009003001,-5.438336652606962
0.8136045348449483,-7.406259738038159
0.8169389796598866,-9.319776043044246
0.820273424474825,-11.085002918227971
0.8236078692897633,-12.612043387549924
0.8269423141047015,-13.819297435736091
0.8302767589196399,-14.637524016532558
0.8336112037345782,-15.013463929187601
0.8369456485495165,-14.912848330757246
0.8402800933644549,-14.322640293569311
0.8436145381793931,-13.252386654168529
0.8469489829943314,-11.73459327958641
0.8502834278092698,-9.824077364508922
0.8536178726242081,-7.5962938104891045
0.8569523174391463,-5.144677311383849
0.8602867622540847,-2.577085582879196
0.863621207069023,-0.011470333165957136
0.8669556518839613,2.4290607378045097
0.8702900966988997,4.621597056303017
0.873624541513838,6.448976535049469
0.8769589863287762,7.805303951654479
0.8802934311437146,8.6012002212329
0.8836278759586529,8.768551378797053
0.8869623207735912,8.264540848328595
0.8902967655885295,7.074772726656784
0.8936312104034678,5.215326518496358
0.8969656552184061,2.733623819528699
0.9003001000333445,-0.2919666736407578
0.9036345448482828,-3.753809541747959
0.906968989663221,-7.517940186323154
0.9103034344781594,-11.428179451239599
0.9136378792930977,-15.311295579275932
0.916972324108036,-18.983038386076483
0.9203067689229744,-22.254831366868196
0.9236412137379126,-24.94087618897286
0.9269756585528509,-26.865402061028224
0.9303101033677893,-27.869780840762843
0.9336445481827276,-27.819228070885544
0.9369789929976658,-26.608820601750008
0.9403134378126042,-24.168582803415497
0.9436478826275425,-20.467424877351156
0.9469823274424808,-15.51575731838383
0.9503167722574192,-9.366653642277745
0.9536512170723574,-2.115487256180945
0.9569856618872957,6.10197426658169
0.9603201067022341,15.11297547869312
0.9636545515171724,24.712580053738204
0.9669889963321107,34.66972401168161
0.970323441147049,44.7343115073156
0.9736578859619873,54.645107714846155
0.9769923307769256,64.13815064064066
0.980326775591864,72.95538144245269
0.9836612204068023,80.85318196800519
0.9869956652217405,87.61050924096874
0.9903301100366789,93.03632954043849
0.9936645548516172,96.97607909060267
0.9969989996665555,99.31691329391316
1.0003334444814937,99.99155057634636
1.0036678892964321,98.98056857140222
1.0070023341113705,96.31306755331448
1.0103367789263087,92.06567652118876
1.013671223741247,86.35993878350665
1.0170056685561855,79.3581739073647
1.0203401133711236,71.25796914709962
1.023674558186062,62.28550377165812
1.0270090030010004,52.68795212638991
1.0303434478159386,42.7252441657051
1.033677892630877,32.66148433145048
1.0370123374458153,22.756340210373853
1.0403467822607535,13.256711026079161
1.0436812270756919,4.388972823627958
1.0470156718906303,-3.647927227267717
1.0503501167055684,-10.688289625427249
1.0536845615205068,-16.604200067446982
1.0570190063354452,-21.308641797026226
1.0603534511503834,-24.757094291465112
1.0636878959653218,-26.94758800996452
1.0670223407802601,-27.919243603059392
1.0703567855951983,-27.749380817425667
1.0736912304101367,-26.549335111921472
1.077025675225075,-24.459166697560974
1.0803601200400132,-21.64148555725793
1.0836945648549516,-18.274645553618804
1.08702900966989,-14.54557994496053
1.0903634544848282,-10.642558877415182
1.0936978992997666,-6.748146528227718
1.097032344114705,-3.0326218161490974
1.1003667889296431,0.3518973223453177
1.1037012337445815,3.276419057796504
1.10703567855952,5.638965712981616
1.110370123374458,7.367264638981927
1.1137045681893964,8.420172099148166
1.1170390130043348,8.787812387980413
1.120373457819273,8.490466109726135
1.1237079026342114,7.5762907969826205
1.1270423474491498,6.11800190348335
1.130376792264088,4.208680908124876
1.1337112370790263,1.9569083491543857
1.1370456818939647,-0.5185580652018089
1.1403801267089029,-3.094327305065791
1.1437145715238413,-5.647904901682233
1.1470490163387796,-8.062979773996382
1.1503834611537178,-10.234255065757711
1.1537179059686562,-12.07163469026817
1.1570523507835946,-13.503609193567268
1.1603867955985327,-14.479722269578573
1.1637212404134711,-14.97204109972148
1.1670556852284095,-14.975597807822119
1.1703901300433477,-14.507813817243209
1.173724574858286,-13.60696188596273
1.1770590196732245,-12.329760287847396
1.1803934644881626,-10.748228385859296
1.183727909303101,-8.945961323210152
1.1870623541180394,-7.014002650933914
1.1903967989329776,-5.046506658141441
1.193731243747916,-3.1363865784399696
1.1970656885628543,-1.371140689170895
1.2004001333777925,0.17096405648646673
1.2037345781927309,1.4241911290796612
1.2070690230076693,2.3379829470016436
1.2104034678226074,2.878857201388981
1.2137379126375458,3.031484821702967
1.2170723574524842,2.798921052268149
1.2204068022674224,2.2019992262473673
1.2237412470823608,1.2779337514270357
1.2270756918972991,0.07821296692275648
1.2304101367122373,-1.334107555922837
1.2337445815271757,-2.887576250628471
1.237079026342114,-4.505828317576962
1.2404134711570522,-6.111216133157691
1.2437479159719906,-7.628420051409691
1.247082360786929,-8.987876476750584
1.2504168056018672,-10.128871420703486
1.2537512504168056,-11.002165668836255
1.257085695231744,-11.572041272976636
1.2604201400466821,-11.81768720695084
1.2637545848616205,-11.733873356314056
1.267089029676559,-11.330895105338435
1.270423474491497,-10.63380413204392
1.2737579193064354,-9.680973128454898
1.2770923641213738,-8.522071608926266
1.280426808936312,-7.215555472950344
1.2837612537512504,-5.825793462476118
1.2870956985661888,-4.419968248981993
1.2904301433811272,-3.064898028272424
1.2937645881960653,-1.8239259136157973
1.2970990330110037,-0.7540191282842326
1.300433477825942,0.09679166482333024
1.3037679226408803,0.691519985260399
1.3071023674558186,1.0057875245826562
1.310436812270757,1.0287800738784165
1.3137712570856952,0.7635597096260689
1.3171057019006336,0.2267275677870435
1.320440146715572,-0.5525385716252087
1.3237745915305101,-1.5340192484732635
1.3271090363454485,-2.668482523290493
1.330443481160387,-3.9001073174721292
1.333777925975325,-5.169183842855292
1.3371123707902635,-6.414962671064643
1.3404468156052018,-7.578518606720911
1.34378126042014,-8.605496338537264
1.3471157052350784,-9.448611748113207
1.3504501500500168,-10.069795381417546
1.353784594864955,-10.441882299507622
1.3571190396798933,-10.549774464277917
1.3604534844948317,-10.391026938476063
1.3637879293097699,-9.975836307515845
1.3671223741247083,-9.326437603081967
1.3704568189396467,-8.475943341191918
1.3737912637545848,-7.466683831398567
1.3771257085695232,-6.348130512057466
1.3804601533844616,-5.174502705480847
1.3837945981993998,-4.002172041567402
1.3871290430143381,-2.886987269193498
1.3904634878292765,-1.8816449120687686
1.3937979326442147,-1.0332281455899395
1.397132377459153,-0.38102755614355033
1.4004668222740915,0.04525646598762911
1.4038012670890296,0.22684837953214476
1.407135711903968,0.15670994315759224
1.4104701567189064,-0.16020410816671404
1.4138046015338446,-0.7072556094701774
1.417139046348783,-1.4569798222188792
1.4204734911637213,-2.3724463089315693
1.4238079359786595,-3.409057301601138
1.427142380793598,-4.516697015342688
1.4304768256085363,-5.6421294512007805
1.4338112704234744,-6.73153115616428
1.4371457152384128,-7.733039653547188
1.4404801600533512,-8.599198065399632
1.4438146048682894,-9.289181805858547
1.4471490496832278,-9.770703860203701
1.4504834944981662,-10.02151056669212
1.4538179393131043,-10.030399257068321
1.4571523841280427,-9.797711673538902
1.460486828942981,-9.335281710541015
1.4638212737579193,-8.665841582167126
1.4671557185728576,-7.821915804793013
1.470490163387796,-6.844256238723805
1.4738246082027342,-5.779892750999563
1.4771590530176726,-4.6798918619757535
1.480493497832611,-3.596929203276156
1.4838279426475491,-2.582790128354074
1.4871623874624875,-1.6859159929445262
1.490496832277426,-0.9491113218992169
1.493831277092364,-0.40751941521081037
1.4971657219073025,-0.08696128089231259
1.5005001667222408,-0.002715707907057663
1.503834611537179,-0.15879760393340625
1.5071690563521174,-0.5477683822229729
1.5105035011670558,-1.1510872731828385
1.513837945981994,-1.9399871157546764
1.5171723907969323,-2.876833626344956
1.5205068356118707,-3.9169044889790516
1.5238412804268089,-5.010504911907141
1.5271757252417473,-6.105320469325024
1.5305101700566857,-7.148896830035769
1.5338446148716238,-8.09112989315483
1.5371790596865622,-8.886649192777845
1.5405135045015006,-9.496982236914176
1.5438479493164388,-9.892397496491622
1.5471823941313771,-10.053338600330479
1.5505168389463155,-9.97138124193202
1.5538512837612537,-9.649666492522796
1.557185728576192,-9.102788619185477
1.5605201733911305,-8.356140999420594
1.5638546182060686,-7.444749123193421
1.567189063021007,-6.411643800666158
1.5705235078359454,-5.305849423986338
1.5738579526508836,-4.180080447682715
1.577192397465822,-3.0882532919103696
1.5805268422807603,-2.082929968205567
1.5838612870956985,-1.2128134369136374
1.587195731910637,-0.5204128347286883
1.5905301767255753,-0.039989322594786714
1.5938646215405134,0.2041192833048111
1.5971990663554518,0.19871416181915258
1.6005335111703902,-0.05756842741228674
1.6038679559853284,-0.5541164748041609
1.6072024008002668,-1.268767020752028
1.6105368456152052,-2.168780058624324
1.6138712904301433,-3.212319359380146
1.6172057352450817,-4.350374024970558
1.62054018006002,-5.529033494856837
1.6238746248749583,-6.69201157181122
1.6272090696898966,-7.783302620732173
1.630543514504835,-8.74984603480703
1.6338779593197732,-9.544073721336769
1.6372124041347116,-10.126219838001226
1.64054684894965,-10.46628214471066
1.6438812937645881,-10.545539700014888
1.6472157385795265,-10.357551553732936
1.650550183394465,-9.908584683320601
1.653884628209403,-9.217445628847305
1.6572190730243415,-8.314717909903914
1.6605535178392798,-7.241435091876056
1.663887962654218,-6.047246025617683
1.6672224074691564,-4.788153071421905
1.6705568522840948,-3.5239248911548664
1.673891297099033,-2.315301658670089
1.6772257419139713,-1.2211215032793286
1.6805601867289097,-0.2955021053156601
1.6838946315438479,0.41478968843246644
1.6872290763587863,0.8726545839733983
1.6905635211737247,1.0525513746978206
1.6938979659886628,0.9418672611453136
1.6972324108036012,0.5416969860870058
1.7005668556185396,-0.13301356322041258
1.7039013004334778,-1.053974634201202
1.7072357452484161,-2.180696046104746
1.7105701900633545,-3.462222286118803
1.7139046348782927,-4.839386657465151
1.717239079693231,-6.24748674284918
1.7205735245081695,-7.619262485832083
1.7239079693231076,-8.8880424153319
1.727242414138046,-9.990913735461175
1.7305768589529844,-10.871768702961917
1.7339113037679226,-11.484083157185962
1.737245748582861,-11.79329318895266
1.7405801933977993,-11.77865236667639
